513,518,522,524,519,516,511,510,508,510,507,511,514,516,519,519,519,521,525,527,531,530,532,536,537,537,540,540,546,545,547,547,550,547,547,548,547,551,560,563,551,539,534,531,533,490,829,678,563,524,505,502,506,510,512,515,518,515,513,509,507,506,502,501,499,503,506,506,511,513,510,508,511,507,507,508,509,508,509,508,508,508,507,509,510,510,509,511,509,510,508,511,512,512,512,513,517,530,530,520,507,506,507,503,503,478,504,708,777,591,529,496,486,485,485,487,489,494,492,498,502,503,500,498,497,494,491,493,489,490,492,492,495,497,499,501,498,497,496,497,495,496,498,498,496,500,500,500,503,503,505,505,507,507,509,509,507,512,512,515,531,534,527,512,513,513,511,496,482,647,815,637,552,502,498,499,502,505,507,512,514,520,519,519,519,517,513,510,508,507,509,509,527,535,531,516,508,511,509,511,507,470,566,794,689,562,522,502,492,493,496,498,501,504,505,508,513,514,513,508,505,504,502,497,496,493,495,498,499,500,500,502,504,501,501,498,498,499,500,501,502,503,505,502,507,508,506,511,514,531,526,516,504,505,502,505,505,468,520,737,741,576,529,499,491,492,491,496,501,503,508,513,513,509,505,504,501,497,498,493,495,496,497,501,504,504,503,504,502,502,503,503,503,498,503,505,507,510,508,511,511,511,511,514,514,515,517,524,537,535,521,510,510,512,513,511,475,534,758,577,530,502,493,496,495,502,506,511,515,520,523,520,516,505,502,495,493,495,499,501,502,500,500,497,497,497,495,496,497,494,495,495,496,493,493,492,491,488,491,487,487,442,446,451,455,454,453,448,446,446,444,448,450,449,452,453,455,458,461,464,469,472,480,495,498,486,486,492,493,486,685,727,582,532,500,493,497,500,504,510,516,521,530,536,543,538,537,530,526,524,521,523,524,525,532,539,540,543,543,542,542,541,543,545,543,546,549,553,555,556,554,559,558,558,559,558,561,559,560,559,559,564,566,574,573,566,554,554,552,553,513,791,755,566,536,529,526,526,530,536,539,541,545,545,541,539,533,525,524,519,518,517,518,518,524,524,525,526,529,527,524,524,524,519,522,522,519,522,520,522,522,521,523,520,521,520,521,523,521,523,522,522,521,527,533,531,523,517,521,520,521,504,487,649,812,653,521,503,499,501,505,504,507,509,513,516,521,524,520,516,512,508,505,500,527,526,524,528,525,525,525,524,524,529,533,539,534,521,517,519,519,518,500,650,815,653,560,516,500,497,498,498,500,504,502,509,511,517,514,513,505,499,493,494,491,492,492,492,497,496,502,500,500,503,501,502,500,502,503,501,502,500,500,502,503,504,504,504,503,506,505,505,503,508,506,508,508,507,512,515,521,528,520,512,509,507,506,511,493,480,643,798,639,553,509,497,497,496,500,501,509,512,520,524,521,519,511,507,505,503,507,509,512,514,517,517,515,519,518,515,514,512,512,514,513,514,514,514,512,516,516,515,518,516,517,520,517,518,525,528,531,521,513,511,514,514,508,469,576,811,697,572,497,494,495,498,498,504,508,509,513,516,516,513,510,506,504,503,498,498,498,501,521,511,511,511,512,512,479,508,720,760,596,503,494,492,494,496,497,504,507,508,513,516,517,516,513,509,507,503,504,497,502,500,501,502,501,506,504,501,498,500,498,495,496,492,492,491,491,489,486,484,483,479,481,478,476,473,474,471,474,475,482,474,464,454,447,448,444,437,399,487,714,627,488,439,417,408,404,406,409,409,412,411,419,419,418,416,418,412,409,410,408,407,403,404,409,413,414,416,421,422,425,429,429,431,433,434,439,439,442,444,449,449,455,459,461,463,466,480,487,494,483,483,485,487,489,483,603,800,643,554,499,497,502,503,507,513,519,528,532,536,534,536,534,532,531,531,535,535,542,544,545,545,547,546,546,547,545,545,549,548,550,549,551,553,552,553,554,553,559,559,538,541,544,536,544,538,534,528,526,525,522,520,520,515,517,514,512,515,518,531,525,510,508,510,512,516,499,494,656,788,628,521,509,507,508,514,517,517,525,526,527,528,528,526,519,516,514,515,506,503,511,513,520,521,514,517,522,519,519,517,524,527,518,526,539,549,541,521,507,515,509,483,527,723,724,580,540,511,502,502,504,503,505,512,517,521,523,524,521,516,512,506,507,507,503,508,510,515,520,518,517,513,516,514,512,510,507,507,503,505,509,513,527,533,524,494,490,492,492,488,456,526,772,746,571,511,477,473,467,473,472,474,479,482,484,487,484,483,477,480,481,482,483,486,490,494,496,501,502,513,513,515,515,516,520,522,525,527,523,521,518,519,528,528,539,537,525,511,511,516,494,493,686,836,662,562,509,495,492,491,502,500,505,503,505,505,505,510,513,520,518,521,526,521,527,532,524,526,523,528,531,526,528,529,526,527,525,526,528,529,526,526,528,528,536,535,549,538,526,521,517,516,512,477,563,827,593,524,495,489,486,489,490,492,498,501,498,497,492,491,486,497,500,501,509,512,512,520,531,523,532,526,528,526,526,526,533,529,529,528,527,526,523,524,524,524,522,524,518,519,523,522,526,519,512,515,521,522,508,491,491,487,492,459,610,801,647,545,498,484,482,487,486,489,489,493,496,498,500,497,491,495,490,490,490,486,489,485,489,493,498,496,495,495,493,487,488,487,488,488,492,491,490,490,490,486,489,487,484,484,483,477,477,475,469,468,466,470,473,483,480,471,456,451,454,453,453,435,422,720,560,479,450,431,463,463,467,467,468,470,472,472,473,477,478,481,483,484,487,488,493,492,495,496,498,501,506,511,517,525,519,508,503,504,508,505,471,778,742,585,534,508,505,500,505,514,518,522,526,532,532,531,533,527,531,524,524,520,516,519,521,523,525,527,527,523,529,525,528,528,528,528,529,529,532,533,533,533,532,533,533,534,539,549,545,533,530,530,528,514,495,653,827,573,528,516,514,514,517,521,525,530,535,542,543,536,523,522,520,518,516,514,513,515,514,516,516,517,518,517,519,520,519,519,517,521,521,520,523,524,521,521,524,525,529,547,539,528,522,526,523,523,513,485,600,805,681,573,529,511,505,508,508,514,514,519,522,529,526,524,518,515,508,505,500,500,502,501,505,507,507,508,508,505,508,495,499,501,503,510,517,518,519,518,517,512,509,505,503,504,499,501,505,504,509,510,512,511,511,512,508,506,510,508,509,510,509,512,509,510,509,512,515,526,523,508,503,504,505,494,468,607,801,655,551,494,486,489,492,492,496,499,504,512,508,506,501,500,497,491,490,492,491,494,494,497,503,504,503,503,501,501,499,502,501,501,503,505,504,504,505,506,505,506,511,516,515,531,525,515,506,505,505,507,506,470,537,735,584,528,498,492,490,496,496,499,504,502,508,512,514,509,508,504,503,500,496,495,494,488,490,492,491,491,494,495,493,491,487,481,481,474,473,471,469,466,467,464,464,461,459,457,458,466,461,441,431,428,427,417,384,700,579,467,426,403,397,397,402,409,415,419,425,429,429,426,424,423,422,422,523,514,503,508,503,508,507,471,541,763,707,569,522,493,486,486,485,490,495,504,507,512,517,519,516,516,516,510,508,499,499,502,503,508,511,516,518,521,523,522,520,526,525,531,528,526,530,529,532,532,529,530,537,533,529,542,545,553,548,535,529,533,530,537,532,496,601,828,723,599,556,520,514,521,527,527,527,556,552,556,551,559,559,561,568,564,571,572,569,568,566,566,564,556,553,550,544,543,540,534,532,532,527,530,526,519,513,511,509,509,509,507,513,506,488,468,468,460,453,411,465,677,645,494,443,412,402,400,402,403,410,411,413,418,420,420,418,417,408,408,405,407,409,409,414,419,426,428,435,438,441,446,452,453,456,460,463,466,474,478,486,489,491,498,503,511,523,530,530,533,536,538,538,539,537,536,540,537,536,533,534,532,535,531,527,529,523,529,528,523,520,523,526,533,539,516,513,514,516,499,484,654,827,562,511,499,494,493,502,501,512,514,523,529,529,529,526,523,521,517,517,516,520,525,527,530,537,541,541,542,540,539,541,544,539,541,538,534,536,533,542,545,540,553,543,542,554,552,548,539,513,505,507,506,479,510,704,713,593,561,531,531,521,513,517,531,524,518,542,550,548,556,557,556,532,524,514,505,509,504,508,500,485,487,488,492,497,499,501,500,509,505,506,505,505,500,509,511,531,526,518,507,502,511,514,510,497,475,603,665,565,523,500,490,490,492,501,503,512,517,512,513,516,531,551,558,547,529,523,508,500,497,488,497,490,488,479,482,484,482,479,475,471,407,409,414,413,417,415,419,415,417,413,419,423,393,386,384,382,385,385,362,478,610,503,421,380,382,378,396,405,417,425,436,447,454,453,453,442,435,431,433,430,432,441,451,457,465,472,476,479,502,509,504,493,486,488,493,496,461,582,769,651,529,512,512,513,518,522,529,535,540,549,564,561,563,559,548,542,542,553,551,558,561,561,562,554,570,572,569,550,542,537,535,527,490,566,797,722,590,534,509,500,501,497,501,504,507,509,516,528,528,522,516,508,500,497,494,495,496,499,501,503,507,507,513,510,513,511,512,513,517,515,518,520,524,524,524,528,541,547,543,529,527,532,530,535,513,516,697,645,575,536,527,523,528,529,532,532,539,543,546,552,546,551,545,540,539,530,524,525,522,522,584,546,523,516,514,523,524,526,529,534,540,544,541,543,535,527,516,517,521,525,528,529,527,531,525,524,527,525,528,525,526,525,527,528,528,530,532,529,532,543,546,533,526,524,524,525,516,615,783,657,579,541,522,522,520,519,522,527,528,531,536,537,538,536,533,527,523,518,510,508,507,507,504,504,507,508,508,506,506,503,506,506,503,505,504,506,502,503,504,502,517,525,524,506,501,500,499,502,486,469,609,707,591,497,488,486,485,485,491,495,498,503,503,508,507,502,497,491,481,469,467,463,465,463,463,462,460,455,454,452,448,445,444,443,438,454,461,459,442,434,430,429,430,424,386,477,673,572,434,411,409,409,409,412,415,420,428,432,439,441,441,439,435,431,428,422,422,424,424,490,493,501,502,511,507,503,508,500,499,499,502,508,510,516,516,516,515,515,513,511,517,516,519,533,545,531,522,519,525,511,623,729,622,565,528,513,511,512,514,520,523,531,536,533,535,537,541,539,537,522,510,504,500,504,503,512,515,518,521,521,527,529,529,530,554,566,545,547,561,563,550,528,663,728,591,556,543,542,540,539,544,544,545,549,549,556,553,547,542,524,519,519,520,518,521,522,522,522,522,519,524,540,545,527,519,513,515,509,505,469,512,619,528,497,464,444,440,440,436,438,441,439,437,433,427,412,398,389,381,378,374,379,377,381,375,373,376,374,396,402,389,373,370,371,374,370,338,372,579,571,449,405,371,368,370,376,383,399,408,422,432,435,441,443,445,440,448,441,434,438,439,505,510,515,521,525,538,544,554,555,553,556,550,542,542,536,537,545,557,555,562,553,547,541,553,558,551,531,526,526,530,526,497,523,710,698,586,525,521,523,525,531,539,548,554,558,555,554,553,545,537,533,524,520,521,522,522,525,523,520,517,520,518,518,507,513,524,531,517,508,504,499,497,488,459,593,604,535,488,471,467,473,483,486,499,506,507,510,512,517,518,516,518,525,528,530,535,536,534,537,542,547,541,541,540,544,544,535,538,536,531,540,538,534,551,548,530,523,520,520,526,492,499,665,695,583,542,520,511,510,510,512,521,521,529,536,538,537,541,536,537,534,538,530,529,535,531,531,532,532,532,527,524,527,528,528,526,523,522,522,510,519,536,542,535,521,513,510,516,501,502,498,501,509,499,484,578,674,600,557,518,508,507,508,503,512,516,523,530,529,519,512,510,490,491,497,495,489,488,488,472,471,470,466,465,457,472,479,464,455,449,452,446,443,408,503,673,567,494,452,435,427,429,428,432,436,436,444,448,449,448,448,439,443,433,427,424,420,422,423,427,431,434,430,433,431,431,426,448,453,432,423,418,418,417,402,373,520,522,458,424,411,415,426,430,441,450,455,457,450,449,448,443,440,437,436,450,449,455,457,457,458,463,465,487,497,491,473,466,469,467,441,476,692,701,558,500,464,462,461,471,472,479,474,469,466,467,467,463,464,461,465,469,478,477,482,482,482,481,485,485,488,502,513,518,498,496,494,484,479,640,762,611,545,512,503,501,505,505,526,529,531,532,534,548,557,553,536,528,529,530,501,535,738,744,605,560,529,519,517,525,524,526,531,534,533,531,526,531,527,526,526,526,525,521,525,525,524,520,519,522,520,521,518,522,519,520,518,522,522,521,522,527,529,540,548,531,520,520,522,490,512,715,598,549,514,506,504,506,510,509,514,517,524,520,518,516,517,515,516,518,517,522,522,523,519,518,519,517,516,518,517,518,518,514,520,521,520,521,522,518,521,521,523,523,523,530,520,509,503,512,513,473,516,721,720,532,503,497,493,495,497,498,499,505,502,503,503,500,500,501,499,502,500,500,502,503,503,507,506,504,509,504,503,505,504,505,506,508,510,508,509,509,509,506,508,509,509,509,511,518,522,524,509,502,501,509,486,482,479,479,479,478,480,480,479,478,485,482,487,482,486,488,485,482,484,482,482,489,487,496,478,478,474,473,434,518,693,526,496,474,473,477,476,489,498,505,506,529,529,533,528,522,522,505,496,491,490,487,483,479,474,461,452,448,440,439,438,440,434,435,431,444,441,442,