486
,309
,500
,537
,524
,522
,524
,509
,510
,521
,471
,442
,558
,541
,270
,581
,525
,369
,362
,347
,512
,489
,497
,490
,485
,472
,457
,449
,432
,472
,487
,491
,482
,511
,506
,520
,514
,522
,515
,528
,520
,511
,532
,543
,557
,558
,558
,570
,584
,671
,693
,415
,365
,529
,563
,568
,576
,565
,575
,575
,581
,585
,606
,616
,617
,604
,590
,553
,526
,501
,501
,485
,492
,488
,490
,487
,481
,496
,489
,484
,484
,485
,479
,484
,477
,485
,475
,468
,451
,458
,467
,483
,479
,471
,478
,482
,543
,644
,479
,177
,405
,487
,490
,496
,500
,501
,501
,517
,528
,529
,542
,556
,546
,541
,507
,467
,438
,444
,427
,451
,441
,451
,460
,456
,479
,501
,493
,504
,485
,512
,506
,519
,521
,534
,547
,530
,543
,531
,541
,542
,516
,501
,515
,496
,504
,528
,528
,523
,514
,513
,566
,621
,577
,227
,384
,467
,481
,533
,511
,533
,549
,518
,564
,553
,579
,598
,593
,583
,557
,525
,513
,506
,470
,494
,488
,475
,502
,488
,495
,487
,493
,492
,487
,489
,511
,491
,486
,500
,503
,499
,493
,506
,489
,507
,508
,498
,481
,496
,497
,517
,533
,527
,532
,566
,639
,693
,482
,276
,519
,555
,558
,579
,574
,569
,579
,598
,590
,622
,620
,641
,622
,619
,583
,548
,521
,528
,513
,504
,517
,517
,498
,516
,510
,494
,515
,503
,500
,501
,500
,506
,486
,497
,496
,499
,500
,486
,498
,492
,495
,495
,480
,469
,476
,489
,480
,494
,502
,499
,501
,562
,651
,469
,187
,424
,486
,506
,494
,518
,494
,531
,533
,525
,541
,566
,572
,557
,568
,528
,493
,461
,474
,453
,451
,444
,447
,427
,432
,425
,424
,419
,446
,443
,430
,450
,447
,448
,438
,444
,437
,444
,460
,445
,456
,451
,462
,451
,446
,484
,490
,500
,497
,497
,507
,599
,661
,475
,215
,445
,533
,529
,535
,559
,547
,566
,563
,575
,599
,606
,614
,605
,594
,573
,542
,517
,498
,511
,501
,517
,510
,509
,512
,510
,498
,515
,514
,504
,505
,519
,500
,513
,509
,511
,507
,519
,503
,516
,481
,501
,489
,537
,518
,526
,527
,513
,597
,669
,543
,195
,418
,521
,525
,546
,549
,550
,555
,571
,565
,592
,598
,624
,619
,604
,593
,538
,530
,519
,507
,514
,509
,508
,510
,492
,508
,506
,502
,506
,507
,495
,510
,503
,511
,505
,509
,508
,505
,506
,478
,496
,498
,526
,519
,520
,526
,520
,585
,660
,554
,196
,414
,517
,543
,552
,553
,557
,557
,571
,575
,585
,609
,629
,622
,606
,594
,550
,521
,520
,504
,506
,500
,508
,514
,500
,515
,504
,512
,507
,510
,500
,509
,504
,506
,506
,514
,498
,491
,480
,496
,516
,511
,514
,522
,522
,537
,615
,665
,346
,296
,474
,538
,527
,548
,547
,540
,563
,561
,578
,594
,605
,609
,598
,596
,545
,534
,501
,501
,495
,500
,502
,495
,504
,501
,508
,492
,510
,491
,508
,501
,504
,491
,507
,510
,495
,498
,491
,472
,498
,510
,520
,517
,516
,521
,577
,660
,552
,193
,406
,501
,529
,534
,544
,555
,552
,565
,567
,592
,600
,612
,615
,599
,575
,545
,521
,499
,507
,502
,497
,504
,499
,513
,498
,509
,506
,495
,516
,509
,502
,493
,516
,505
,504
,508
,489
,499
,480
,525
,516
,528
,522
,514
,565
,615
,656
,325
,310
,472
,546
,530
,553
,542
,554
,560
,569
,573
,595
,606
,607
,592
,586
,547
,520
,507
,496
,487
,495
,501
,488
,502
,493
,498
,493
,489
,498
,489
,496
,497
,487
,488
,495
,490
,494
,480
,464
,498
,499
,509
,504
,520
,505
,549
,622
,595
,229
,352
,483
,516
,524
,544
,528
,549
,549
,553
,562
,588
,608
,599
,595
,565
,531
,522
,493
,490
,488
,481
,491
,495
,478
,494
,497
,494
,500
,490
,495
,493
,493
,503
,483
,501
,492
,499
,484
,497
,475
,486
,495
,515
,508
,512
,508
,525
,594
,671
,472
,191
,466
,514
,521
,536
,533
,550
,545
,558
,569
,586
,602
,606
,598
,585
,556
,524
,507
,490
,490
,494
,484
,487
,489
,491
,493
,497
,477
,492
,495
,485
,490
,479
,495
,480
,499
,487
,486
,489
,487
,488
,470
,485
,490
,495
,505
,510
,504
,526
,608
,635
,332
,288
,479
,518
,521
,540
,536
,544
,546
,555
,577
,568
,613
,598
,611
,582
,549
,531
,499
,498
,507
,493
,493
,508
,502
,504
,502
,499
,497
,517
,505
,500
,505
,501
,507
,511
,510
,506
,511
,516
,515
,515
,510
,495
,511
,519
,535
,523
,536
,530
,547
,615
,701
,465
,241
,482
,528
,562
,556
,563
,568
,567
,585
,591
,607
,623
,632
,624
,618
,577
,560
,532
,521
,519
,525
,514
,520
,517
,521
,521
,524
,513
,516
,510
,517
,525
,513
,515
,527
,509
,525
,509
,518
,525
,514
,512
,512
,509
,502
,514
,528
,528
,513
,529
,520
,596
,673
,523
,193
,428
,518
,529
,538
,545
,537
,556
,551
,558
,585
,592
,600
,601
,589
,567
,530
,512
,485
,492
,479
,491
,487
,480
,490
,483
,496
,484
,487
,482
,491
,488
,483
,485
,483
,486
,494
,481
,497
,484
,498
,492
,485
,497
,483
,492
,462
,479
,500
,496
,496
,503
,498
,508
,585
,639
,403
,223
,450
,502
,506
,523
,528
,513
,530
,542
,553
,555
,596
,589
,579
,574
,543
,502
,490
,470
,464
,471
,458
,473
,494
,471
,483
,470
,494
,485
,484
,498
,466
,495
,479
,492
,495
,457
,487
,467
,470
,487
,481
,474
,456
,471
,470
,484
,445
,453
,463
,466
,484
,453
,456
,497
,511
,617
,610
,264
,330
,488
,499
,521
,513
,535
,538
,540
,546
,559
,587
,610
,604
,609
,584
,559
,520
,520
,512
,498
,516
,507
,513
,512
,523
,516
,525
,528
,536
,538
,541
,557
,563
,573
,577
,583
,603
,393
,647
,536
,405
,407
,406
,409
,634
,620
,601
,647
,610
,638
,651
,626
,647
,624
,694
,789
,529
,446
,583
,622
,627
,627
,631
,627
,627
,631
,634
,636
,656
,654
,649
,620
,553
,524
,468
,460
,451
,456
,447
,444
,487
,509
,507
,499
,498
,495
,494
,491
,482
,472
,465
,458
,468
,480
,487
,478
,457
,415
,390
,431
,446
,456
,460
,480
,480
,499
,503
,497
,507
,503
,510
,569
,664
,557
,231
,446
,516
,525
,529
,528
,532
,541
,544
,551
,562
,572
,584
,585
,582
,559
,528
,504
,494
,487
,489
,488
,488
,489
,487
,488
,490
,491
,492
,492
,490
,495
,496
,498
,499
,503
,501
,505
,503
,507
,508
,510
,512
,514
,513
,506
,507
,512
,522
,519
,524
,526
,522
,549
,615
,658
,431
,335
,494
,532
,539
,544
,545
,552
,554
,563
,574
,586
,599
,606
,606
,592
,563
,533
,516
,504
,502
,502
,501
,503
,502
,503
,502
,504
,503
,502
,504
,500
,502
,501
,500
,500
,501
,502
,501
,504
,505
,505
,505
,505
,509
,509
,503
,507
,502
,511
,518
,510
,512
,511
,517
,568
,651
,581
,235
,417
,504
,517
,525
,530
,533
,538
,546
,553
,565
,581
,592
,598
,591
,567
,543
,513
,501
,494
,491
,490
,491
,495
,494
,497
,494
,493
,494
,492
,494
,499
,494
,501
,498
,502
,500
,500
,503
,506
,510
,508
,512
,509
,510
,514
,508
,522
,530
,525
,530
,533
,539
,597
,687
,646
,306
,393
,496
,523
,532
,609
,605
,608
,612
,570
,583
,602
,683
,676
,667
,641
,599
,573
,550
,532
,526
,519
,513
,506
,502
,493
,495
,497
,493
,487
,490
,486
,480
,473
,469
,479
,481
,476
,471
,457
,464
,468
,479
,490
,488
,488
,489
,486
,512
,572
,597
,371
,294
,454
,495
,504
,515
,518
,522
,527
,542
,554
,569
,587
,597
,584
,576
,541
,519
,506
,499
,498
,498
,497
,501
,501
,507
,509
,514
,515
,517
,518
,521
,521
,524
,524
,527
,527
,528
,525
,521
,511
,516
,535
,543
,544
,546
,547
,554
,617
,673
,500
,275
,496
,551
,561
,568
,571
,572
,577
,582
,590
,602
,615
,625
,620
,609
,581
,549
,527
,517
,511
,511
,510
,509
,509
,509
,504
,505
,506
,506
,503
,504
,505
,502
,504
,502
,503
,500
,500
,489
,487
,477
,479
,496
,506
,507
,505
,508
,518
,575
,636
,462
,239
,458
,509
,517
,524
,529
,532
,530
,543
,546
,567
,581
,594
,590
,577
,554
,520
,500
,501
,500
,497
,499
,505
,506
,507
,502
,502
,496
,495
,492
,484
,435
,443
,442
,446
,447
,451
,453
,455
,446
,440
,434
,441
,460
,466
,473
,476
,485
,498
,555
,639
,491
,213
,436
,488
,498
,504
,507
,512
,522
,531
,542
,557
,571
,583
,583
,572
,552
,522
,497
,492
,487
,486
,485
,485
,485
,487
,485
,487
,483
,480
,475
,479
,479
,485
,482
,487
,481
,486
,488
,488
,490
,495
,480
,478
,471
,477
,495
,501
,503
,507
,507
,520
,573
,654
,496
,269
,466
,517
,564
,575
,573
,575
,578
,583
,592
,603
,616
,620
,618
,606
,574
,543
,525
,510
,505
,453
,461
,461
,461
,464
,465
,466
,468
,466
,470
,468
,472
,468
,474
,477
,479
,482
,482
,482
,480
,477
,475
,483
,501
,508
,508
,512
,519
,541
,602
,650
,422
,332
,496
,533
,544
,552
,559
,560
,567
,574
,586
,600
,615
,672
,670
,649
,617
,588
,568
,559
,550
,548
,545
,545
,541
,539
,539
,535
,536
,532
,530
,527
,526
,525
,526
,523
,524
,522
,521
,519
,513
,507
,498
,501
,515
,524
,523
,524
,528
,533
,588
,660
,514
,251
,465
,514
,526
,533
,539
,538
,544
,552
,562
,576
,593
,601
,600
,586
,559
,532
,512
,500
,499
,495
,500
,501
,502
,502
,502
,500
,499
,501
,499
,499
,502
,498
,498
,499
,503
,501
,503
,499
,497
,488
,489
,501
,515
,516
,519
,518
,518
,563
,638
,588
,245
,421
,504
,520
,529
,532
,535
,540
,546
,555
,567
,580
,590
,592
,582
,561
,532
,510
,496
,491
,491
,490
,493
,491
,494
,493
,496
,494
,495
,500
,498
,499
,504
,503
,503
,506
,506
,506
,507
,499
,498
,488
,491
,508
,519
,520
,520
,519
,524
,578
,657
,542
,239
,458
,517
,529
,532
,536
,537
,542
,548
,559
,573
,587
,597
,594
,583
,558
,528
,508
,495
,493
,492
,492
,492
,493
,497
,496
,496
,497
,497
,498
,500
,499
,499
,498
,502
,501
,502
,495
,490
,484
,489
,507
,514
,513
,514
,517
,526
,584
,657
,480
,284
,474
,515
,524
,530
,535
,538
,545
,551
,564
,575
,589
,596
,593
,576
,551
,521
,503
,494
,492
,493
,492
,495
,495
,497
,497
,498
,500
,498
,501
,501
,502
,502
,502
,504
,504
,504
,502
,497
,494
,487
,487
,503
,515
,516
,514
,516
,523
,575
,661
,541
,239
,459
,515
,523
,531
,534
,540
,542
,546
,559
,572
,585
,599
,594
,584
,558
,529
,510
,501
,496
,495
,499
,501
,498
,508
,505
,507
,509
,505
,505
,507
,508
,506
,509
,511
,512
,510
,510
,511
,514
,510
,503
,464
,443
,461
,475
,478
,480
,501
,531
,577
,664
,614
,256
,449
,522
,535
,542
,545
,548
,550
,557
,563
,574
,587
,597
,595
,588
,567
,537
,515
,502
,497
,497
,493
,496
,497
,497
,500
,500
,498
,501
,502
,500
,502
,503
,501
,505
,504
,505
,502
,505
,501
,501
,493
,488
,491
,508
,514
,516
,516
,518
,534
,595
,659
,432
,330
,483
,518
,528
,530
,536
,539
,546
,553
,562
,577
,588
,593
,586
,572
,546
,520
,503
,494
,493
,494
,493
,494
,496
,495
,499
,498
,500
,501
,498
,504
,502
,499
,503
,503
,502
,505
,504
,507
,507
,502
,497
,490
,490
,505
,516
,518
,517
,518
,524
,575
,666
,559
,241
,460
,514
,525
,533
,535
,539
,546
,549
,560
,573
,587
,596
,595
,583
,559
,532
,510
,500
,496
,494
,495
,495
,497
,500
,500
,500
,501
,500
,503
,500
,503
,501
,503
,502
,504
,503
,505
,504
,506
,500
,499
,488
,489
,505
,517
,517
,516
,520
,523
,571
,664
,595
,240
,449
,514
,526
,531
,536
,540
,543
,550
,558
,571
,582
,595
,593
,583
,559
,530
,507
,497
,491
,491
,490
,492
,493
,495
,497
,496
,497
,497
,499
,497
,500
,498
,501
,499
,499
,501
,501
,503
,503
,496
,495
,487
,485
,505
,515
,516
,515
,516
,521
,573
,659
,558
,234
,454
,512
,525
,530
,533
,538
,544
,549
,561
,570
,586
,595
,595
,582
,560
,530
,511
,496
,494
,495
,494
,495
,497
,500
,502
,501
,505
,507
,506
,509
,509
,509
,514
,512
,514
,516
,517
,520
,519
,524
,521
,519
,510
,511
,522
,537
,540
,542
,544
,547
,589
,659
,636
,299
,443
,532
,552
,562
,565
,567
,574
,579
,588
,597
,610
,619
,624
,615
,595
,565
,542
,525
,521
,518
,516
,516
,517
,517
,517
,518
,517
,516
,517
,515
,517
,517
,514
,515
,513
,512
,512
,510
,510
,503
,495
,439
,434
,441
,460
,467
,472
,474
,476
,492
,550
,622
,436
,276
,453
,490
,499
,501
,511
,511
,523
,524
,536
,548
,560
,572
,569
,553
,530
,501
,485
,475
,474
,475
,474
,476
,480
,480
,480
,483
,484
,483
,482
,486
,487
,488
,490
,489
,488
,489
,491
,491
,493
,488
,483
,476
,477
,493
,504
,505
,508
,510
,515
,559
,650
,572
,226
,444
,504
,516
,524
,530
,533
,538
,542
,551
,567
,579
,588
,590
,579
,558
,530
,506
,496
,492
,488
,490
,491
,492
,496
,499
,499
,499
,502
,499
,500
,498
,499
,499
,500
,498
,509
,560
,557
,555
,547
,540
,529
,528
,545
,549
,549
,547
,544
,553
,602
,691
,568
,284
,482
,525
,534
,540
,541
,543
,550
,553
,562
,575
,586
,592
,590
,574
,549
,523
,498
,488
,487
,482
,485
,484
,483
,487
,486
,489
,489
,489
,491
,491
,492
,491
,490
,490
,490
,493
,493
,492
,494
,493
,492
,486
,481
,477
,479
,498
,499
,504
,501
,497
,483
,523
,600
,457
,233
,429
,472
,484
,489
,501
,501
,510
,516
,534
,545
,560
,571
,571
,560
,539
,512
,494
,484
,482
,486
,487
,491
,493
,492
,495
,496
,497
,496
,501
,500
,503
,501
,505
,506
,507
,507
,510
,511
,513
,514
,515
,516
,513
,509
,503
,504
,522
,527
,528
,528
,528
,532
,581
,664
,577
,262
,469
,524
,531
,536
,542
,541
,548
,553
,562
,574
,588
,597
,597
,587
,564
,539
,515
,505
,500
,501
,500
,499
,500
,500
,502
,501
,503
,504
,504
,503
,504
,505
,505
,504
,507
,508
,507
,508
,508
,510
,511
,509
,511
,513
,511
,506
,504
,496
,509
,519
,518
,518
,517
,519
,551
,614
,629
,331
,391
,494
,513
,521
,525
,526
,531
,538
,544
,554
,567
,580
,588
,582
,566
,541
,515
,497
,491
,490
,491
,493
,494
,495
,496
,497
,497
,498
,498
,502
,503
,500
,502
,505
,502
,504
,504
,502
,504
,506
,504
,505
,505
,508
,505
,508
,500
,498
,499
,511
,516
,513
,516
,515
,518
,558
,642
,612
,256
,432
,506
,519
,528
,533
,534
,541
,550
,558
,566
,580
,595
,596
,591
,575
,545
,522
,510
,508
,508
,514
,519
,526
,533
,532
,535
,534
,533
,535
,530
,533
,532
,532
,528
,524
,505
,480
,480
,482
,484
,489
,491
,493
,488
,489
,486
,501
,562
,556
,553
,554
,553
,569
,622
,694
,508
,354
,503
,531
,539
,540
,545
,545
,549
,556
,563
,575
,588
,595
,591
,577
,548
,520
,502
,489
,486
,485
,486
,484
,488
,487
,488
,486
,488
,489
,489
,489
,488
,490
,489
,488
,489
,489
,488
,489
,490
,483
,480
,482
,488
,501
,501
,501
,503
,504
,525
,576
,614
,387
,331
,473
,506
,512
,518
,522
,526
,531
,541
,552
,567
,580
,588
,585
,568
,541
,511
,495
,489
,486
,487
,489
,490
,489
,491
,493
,493
,494
,496
,494
,497
,497
,498
,496
,498
,498
,499
,503
,504
,499
,497
,489
,488
,497
,514
,513
,515
,516
,517
,549
,606
,626
,362
,374
,496
,522
,527
,531
,537
,540
,546
,553
,562
,574
,590
,595
,592
,575
,546
,521
,504
,497
,495
,496
,496
,494
,494
,495
,496
,499
,499
,500
,502
,499
,500
,506
,504
,504
,503
,501
,502
,504
,503
,506
,498
,491
,484
,488
,502
,509
,510
,511
,513
,513
,533
,585
,659
,523
,251
,456
,508
,521
,527
,534
,539
,547
,552
,561
,573
,581
,599
,605
,607
,601
,582
,553
,530
,514
,509
,508
,506
,508
,511
,508
,510
,510
,512
,510
,511
,510
,510
,509
,513
,508
,509
,511
,511
,511
,507
,503
,491
,489
,499
,513
,517
,514
,514
,516
,519
,572
,648
,594
,274
,382
,491
,516
,524
,528
,531
,535
,536
,545
,553
,562
,575
,587
,590
,584
,567
,537
,513
,497
,487
,486
,484
,485
,486
,485
,485
,491
,492
,492
,496
,494
,495
,495
,496
,497
,497
,494
,498
,495
,496
,497
,498
,501
,500
,494
,491
,483
,484
,498
,512
,515
,513
,515
,517
,524
,574
,657
,556
,233
,424
,501
,520
,527
,531
,533
,535
,540
,548
,553
,567
,577
,592
,593
,585
,569
,543
,518
,499
,491
,487
,490
,490
,489
,490
,491
,489
,494
,493
,494
,498
,498
,499
,499
,502
,499
,502
,502
,505
,507
,505
,506
,506
,502
,495
,489
,494
,509
,520
,521
,520
,522
,523
,550
,599
,645
,489
,294
,479
,524
,530
,536
,540
,541
,545
,548
,551
,560
,574
,586
,598
,598
,587
,567
,541
,519
,505
,500
,497
,498
,497
,498
,499
,501
,499
,503
,506
,508
,510
,514
,515
,517
,520
,523
,524
,521
,523
,509
,507
,518
,531
,536
,537
,540
,542
,544
,592
,654
,618
,355
,395
,514
,545
,556
,557
,564
,564
,573
,575
,587
,600
,616
,629
,631
,624
,609
,580
,555
,539
,530
,524
,528
,524
,522
,523
,526
,524
,525
,523
,522
,519
,517
,512
,505
,508
,502
,507
,500
,509
,504
,503
,500
,497
,490
,483
,472
,478
,490
,504
,505
,507
,506
,508
,531
,581
,617
,448
,266
,452
,497
,502
,506
,509
,