532
,512
,518
,521
,532
,524
,524
,532
,529
,588
,665
,576
,222
,426
,515
,541
,539
,545
,556
,569
,578
,590
,616
,632
,639
,646
,633
,602
,574
,559
,548
,537
,536
,534
,532
,522
,528
,534
,517
,514
,524
,525
,513
,519
,518
,520
,529
,529
,535
,529
,531
,531
,537
,531
,535
,546
,542
,542
,549
,550
,547
,546
,554
,556
,548
,553
,563
,572
,566
,572
,582
,595
,669
,739
,542
,280
,553
,594
,605
,619
,619
,629
,634
,640
,655
,674
,687
,696
,688
,676
,666
,682
,672
,655
,620
,619
,615
,611
,609
,618
,609
,600
,610
,622
,633
,636
,631
,628
,636
,646
,637
,636
,635
,626
,611
,578
,550
,544
,527
,510
,508
,506
,499
,493
,487
,491
,491
,485
,484
,479
,462
,428
,409
,415
,444
,521
,578
,302
,186
,362
,348
,294
,241
,226
,187
,187
,186
,187
,205
,296
,318
,307
,186
,187
,187
,187
,186
,186
,187
,186
,187
,187
,187
,187
,187
,187
,186
,187
,221
,401
,450
,493
,546
,585
,619
,658
,725
,734
,761
,768
,806
,816
,808
,818
,821
,807
,779
,761
,721
,698
,673
,641
,575
,627
,511
,187
,187
,186
,186
,186
,186
,187
,187
,186
,186
,187
,255
,433
,502
,567
,595
,602
,647
,698
,788
,852
,860
,861
,861
,862
,862
,863
,863
,863
,863
,864
,863
,863
,863
,863
,863
,863
,862
,862
,861
,859
,855
,825
,812
,797
,785
,780
,770
,757
,741
,730
,741
,815
,861
,859
,402
,676
,683
,691
,687
,680
,676
,682
,683
,669
,691
,694
,699
,668
,644
,601
,555
,570
,572
,552
,540
,529
,523
,502
,442
,433
,431
,427
,420
,422
,436
,429
,417
,428
,417
,410
,349
,360
,350
,349
,367
,401
,406
,410
,418
,447
,504
,663
,725
,262
,405
,515
,558
,580
,606
,628
,640
,676
,700
,713
,730
,752
,734
,724
,697
,665
,652
,629
,627
,625
,625
,616
,611
,591
,594
,554
,533
,512
,465
,435
,387
,402
,407
,408
,378
,404
,363
,355
,387
,479
,467
,491
,574
,756
,767
,249
,524
,535
,553
,554
,526
,525
,526
,562
,558
,527
,861
,864
,864
,864
,864
,864
,864
,863
,861
,850
,818
,822
,824
,843
,846
,838
,837
,831
,819
,816
,804
,792
,791
,785
,765
,770
,787
,802
,803
,817
,821
,857
,861
,862
,510
,681
,747
,764
,766
,747
,739
,739
,730
,726
,725
,724
,713
,698
,676
,636
,608
,594
,582
,576
,566
,573
,588
,599
,589
,592
,593
,565
,579
,547
,549
,531
,513
,451
,407
,447
,411
,453
,474
,474
,472
,518
,581
,592
,254
,260
,497
,485
,497
,493
,498
,526
,522
,515
,562
,563
,532
,503
,502
,395
,350
,277
,249
,240
,210
,187
,187
,186
,187
,187
,186
,187
,186
,187
,187
,186
,186
,187
,187
,187
,187
,187
,186
,187
,187
,186
,186
,186
,186
,187
,189
,320
,338
,343
,366
,396
,488
,603
,348
,187
,224
,361
,349
,389
,403
,421
,475
,556
,598
,643
,702
,752
,787
,817
,842
,848
,843
,845
,840
,839
,834
,839
,826
,800
,775
,751
,744
,740
,736
,735
,727
,718
,724
,717
,708
,707
,713
,701
,697
,690
,670
,662
,653
,646
,646
,653
,651
,656
,636
,630
,692
,778
,819
,525
,492
,658
,676
,678
,691
,687
,707
,729
,785
,826
,854
,860
,861
,862
,862
,860
,842
,793
,800
,802
,792
,773
,764
,753
,726
,723
,699
,634
,531
,385
,187
,186
,187
,187
,187
,187
,186
,186
,186
,186
,188
,240
,611
,858
,864
,865
,865
,865
,865
,865
,865
,865
,865
,865
,865
,864
,865
,865
,864
,864
,865
,865
,864
,865
,865
,864
,862
,849
,740
,682
,667
,651
,637
,618
,598
,576
,589
,611
,614
,630
,641
,656
,678
,674
,677
,672
,647
,622
,596
,556
,522
,497
,488
,486
,446
,416
,395
,350
,327
,317
,313
,302
,296
,305
,298
,281
,300
,298
,321
,305
,339
,384
,458
,504
,231
,187
,355
,387
,397
,400
,399
,411
,414
,416
,427
,448
,458
,446
,434
,408
,368
,335
,319
,321
,311
,311
,321
,318
,329
,331
,333
,313
,281
,244
,207
,187
,186
,187
,187
,187
,186
,186
,186
,187
,187
,187
,187
,187
,187
,186
,186
,186
,187
,186
,187
,186
,187
,186
,187
,191
,186
,187
,187
,330
,337
,356
,389
,390
,420
,445
,494
,549
,594
,609
,636
,618
,618
,632
,657
,672
,689
,744
,774
,779
,786
,799
,792
,780
,790
,786
,784
,786
,777
,784
,770
,776
,733
,766
,778
,822
,846
,851
,844
,838
,848
,849
,856
,859
,860
,861
,861
,863
,864
,864
,860
,810
,862
,862
,863
,864
,863
,863
,863
,863
,863
,863
,862
,862
,860
,818
,752
,710
,685
,661
,642
,616
,600
,586
,571
,553
,549
,544
,527
,516
,519
,501
,482
,481
,474
,463
,459
,460
,458
,450
,438
,438
,424
,415
,429
,447
,441
,436
,438
,441
,503
,576
,430
,187
,267
,387
,395
,397
,400
,411
,415
,409
,427
,459
,469
,474
,468
,457
,427
,400
,387
,388
,379
,387
,400
,412
,411
,424
,436
,425
,429
,436
,442
,441
,449
,458
,465
,471
,465
,482
,478
,471
,432
,369
,265
,187
,187
,187
,187
,187
,187
,187
,186
,187
,190
,187
,187
,186
,186
,187
,187
,187
,187
,187
,187
,187
,187
,186
,248
,397
,445
,486
,495
,525
,526
,554
,589
,595
,609
,641
,663
,666
,716
,733
,755
,756
,753
,767
,777
,804
,839
,853
,859
,862
,864
,864
,865
,865
,865
,865
,865
,864
,865
,865
,864
,865
,865
,864
,865
,865
,865
,865
,865
,864
,864
,864
,864
,864
,863
,862
,860
,842
,795
,796
,796
,781
,755
,767
,754
,733
,727
,725
,724
,695
,690
,704
,697
,684
,666
,647
,663
,719
,770
,484
,370
,498
,506
,489
,455
,434
,444
,434
,443
,440
,456
,456
,470
,452
,428
,420
,407
,402
,414
,405
,405
,426
,436
,440
,443
,439
,443
,449
,444
,441
,432
,411
,366
,346
,346
,341
,331
,325
,378
,490
,439
,187
,187
,386
,394
,429
,459
,457
,432
,431
,454
,463
,485
,516
,525
,509
,473
,473
,473
,475
,489
,505
,497
,498
,495
,476
,485
,485
,493
,480
,452
,451
,442
,435
,412
,445
,458
,452
,468
,474
,472
,534
,548
,251
,187
,398
,404
,421
,438
,445
,465
,478
,483
,499
,531
,544
,549
,557
,538
,513
,496
,488
,478
,486
,494
,505
,513
,508
,516
,526
,531
,528
,543
,546
,545
,557
,560
,553
,560
,559
,558
,565
,557
,559
,561
,580
,577
,575
,570
,569
,583
,655
,745
,608
,229
,497
,557
,579
,578
,587
,595
,601
,603
,611
,620
,625
,642
,644
,632
,629
,596
,566
,551
,537
,526
,529
,525
,523
,523
,527
,515
,522
,521
,514
,519
,518
,510
,516
,525
,516
,517
,523
,522
,518
,522
,518
,518
,523
,512
,510
,506
,501
,506
,513
,506
,506
,505
,502
,572
,647
,478
,186
,379
,463
,472
,471
,461
,455
,468
,480
,484
,505
,521
,537
,545
,544
,527
,518
,498
,473
,463
,473
,463
,472
,480
,475
,478
,488
,487
,480
,484
,480
,479
,486
,482
,478
,488
,488
,482
,495
,494
,496
,504
,502
,502
,512
,507
,506
,509
,513
,528
,535
,540
,543
,546
,559
,629
,722
,582
,216
,461
,533
,550
,554
,565
,567
,569
,579
,579
,584
,606
,615
,611
,605
,583
,545
,501
,465
,441
,424
,437
,428
,432
,417
,389
,393
,401
,394
,405
,412
,400
,409
,421
,415
,420
,433
,430
,442
,464
,464
,466
,492
,482
,482
,488
,484
,503
,531
,525
,523
,517
,451
,477
,529
,416
,187
,187
,187
,187
,187
,187
,187
,187
,187
,186
,187
,188
,187
,187
,186
,187
,220
,238
,238
,236
,279
,300
,322
,336
,328
,314
,353
,381
,407
,427
,443
,462
,479
,495
,517
,541
,589
,582
,616
,651
,662
,676
,701
,782
,833
,859
,862
,864
,863
,864
,864
,864
,864
,864
,865
,864
,864
,864
,864
,864
,865
,864
,864
,865
,864
,865
,864
,865
,864
,864
,864
,864
,863
,861
,756
,725
,706
,695
,688
,673
,663
,678
,683
,687
,695
,692
,675
,658
,670
,665
,652
,669
,655
,648
,659
,655
,651
,635
,631
,625
,650
,634
,619
,622
,632
,663
,732
,774
,494
,262
,481
,460
,449
,442
,373
,357
,333
,298
,307
,339
,355
,380
,416
,420
,462
,481
,492
,484
,482
,507
,490
,482
,490
,486
,482
,462
,429
,429
,421
,428
,444
,452
,457
,469
,462
,449
,468
,456
,439
,473
,451
,434
,339
,257
,187
,187
,186
,187
,186
,186
,187
,186
,187
,186
,186
,187
,186
,187
,186
,187
,187
,186
,187
,187
,186
,187
,187
,187
,187
,186
,187
,187
,187
,187
,187
,187
,187
,186
,187
,861
,864
,865
,865
,865
,865
,865
,865
,865
,865
,865
,865
,865
,865
,865
,865
,865
,865
,865
,865
,865
,865
,865
,865
,865
,865
,865
,865
,865
,865
,765
,498
,552
,540
,542
,541
,542
,541
,541
,542
,614
,797
,861
,864
,864
,865
,864
,864
,865
,864
,864
,865
,864
,864
,863
,863
,864
,865
,864
,753
,840
,858
,859
,860
,858
,845
,826
,803
,785
,785
,754
,731
,699
,521
,538
,458
,398
,293
,286
,237
,187
,186
,187
,187
,186
,187
,187
,186
,187
,187
,187
,187
,187
,187
,188
,187
,186
,187
,187
,187
,187
,187
,186
,187
,187
,186
,187
,186
,187
,187
,188
,508
,584
,659
,731
,834
,838
,857
,861
,863
,862
,863
,863
,862
,862
,862
,862
,863
,864
,864
,865
,865
,865
,865
,865
,865
,865
,865
,865
,865
,865
,865
,865
,865
,865
,865
,865
,865
,865
,865
,865
,865
,865
,864
,865
,865
,865
,864
,864
,863
,862
,857
,820
,796
,792
,764
,740
,728
,722
,675
,658
,628
,603
,560
,566
,550
,542
,526
,522
,518
,505
,539
,579
,539
,265
,200
,434
,446
,447
,545
,522
,560
,537
,540
,536
,539
,537
,535
,511
,187
,187
,187
,187
,187
,188
,188
,188
,600
,525
,543
,538
,541
,539
,541
,541
,187
,187
,187
,187
,188
,187
,188
,187
,187
,188
,186
,187
,187
,187
,187
,188
,187
,187
,188
,188
,188
,187
,187
,196
,652
,517
,545
,539
,542
,542
,541
,544
,599
,631
,665
,711
,736
,752
,784
,788
,803
,805
,812
,825
,860
,863
,857
,522
,728
,803
,820
,830
,831
,824
,814
,813
,808
,801
,794
,799
,804
,802
,792
,771
,727
,694
,651
,630
,590
,578
,558
,533
,520
,500
,464
,430
,426
,423
,428
,442
,416
,417
,401
,387
,378
,370
,357
,282
,278
,236
,226
,223
,187
,187
,188
,187
,187
,187
,187
,187
,187
,187
,188
,206
,224
,239
,271
,306
,298
,294
,310
,315
,298
,318
,386
,457
,430
,200
,188
,341
,405
,407
,428
,448
,466
,484
,522
,560
,595
,619
,654
,678
,696
,713
,735
,722
,715
,721
,722
,700
,690
,689
,677
,652
,611
,541
,406
,441
,426
,420
,407
,355
,301
,265
,280
,343
,377
,398
,415
,480
,504
,556
,592
,651
,675
,672
,668
,645
,637
,618
,548
,500
,472
,469
,483
,493
,478
,474
,475
,463
,420
,429
,443
,464
,505
,607
,675
,777
,858
,848
,526
,612
,798
,862
,863
,863
,864
,864
,865
,865
,864
,865
,864
,865
,864
,864
,864
,863
,861
,860
,854
,840
,841
,829
,812
,814
,790
,768
,757
,740
,719
,699
,695
,682
,671
,658
,643
,632
,620
,611
,597
,593
,577
,568
,561
,550
,543
,529
,450
,331
,571
,514
,564
,540
,522
,530
,533
,546
,542
,530
,865
,629
,512
,555
,535
,544
,596
,529
,543
,540
,541
,541
,568
,589
,604
,600
,596
,588
,564
,529
,476
,448
,420
,414
,416
,409
,423
,435
,441
,451
,461
,467
,471
,456
,451
,430
,401
,391
,408
,420
,436
,455
,478
,503
,561
,595
,619
,642
,673
,686
,712
,748
,747
,756
,741
,754
,751
,736
,720
,677
,670
,722
,780
,684
,338
,424
,528
,530
,515
,477
,442
,357
,278
,200
,187
,187
,186
,187
,186
,187
,186
,187
,186
,187
,187
,187
,187
,187
,187
,187
,187
,188
,187
,188
,186
,187
,187
,187
,187
,187
,247
,297
,329
,352
,381
,398
,412
,430
,452
,456
,463
,479
,481
,432
,435
,384
,399
,402
,448
,529
,563
,248
,186
,425
,500
,539
,576
,600
,632
,668
,732
,777
,822
,855
,860
,862
,863
,863
,863
,863
,862
,862
,862
,861
,860
,859
,854
,849
,846
,831
,828
,824
,799
,784
,773
,765
,756
,767
,755
,741
,735
,722
,709
,724
,749
,763
,762
,770
,759
,763
,844
,859
,723
,378
,639
,714
,750
,751
,789
,791
,781
,783
,788
,791
,792
,803
,801
,788
,764
,732
,691
,675
,657
,636
,633
,622
,622
,512
,548
,539
,542
,541
,545
,539
,546
,541
,541
,542
,540
,632
,730
,798
,840
,859
,862
,863
,863
,863
,864
,865
,865
,865
,865
,864
,864
,864
,865
,865
,865
,865
,865
,865
,865
,865
,865
,865
,865
,865
,864
,864
,863
,862
,851
,768
,749
,720
,700
,676
,651
,633
,611
,587
,572
,557
,542
,527
,517
,498
,481
,471
,442
,436
,447
,443
,440
,430
,426
,428
,494
,557
,426
,186
,186
,380
,386
,384
,381
,384
,374
,368
,373
,370
,371
,386
,372
,349
,326
,299
,238
,204
,187
,187
,187
,187
,186
,186
,187
,187
,187
,186
,186
,187
,187
,187
,186
,187
,187
,187
,187
,187
,186
,187
,186
,187
,187
,186
,188
,360
,191
,187
,187
,187
,188
,224
,218
,188
,187
,617
,535
,544
,542
,541
,541
,541
,539
,537
,543
,534
,519
,559
,546
,548
,551
,548
,533
,538
,534
,524
,527
,530
,530
,533
,527
,524
,508
,520
,538
,555
,548
,541
,540
,543
,594
,658
,590
,206
,337
,501
,520
,523
,530
,531
,531
,540
,549
,561
,581
,599
,613
,628
,656
,647
,624
,620
,622
,630
,629
,632
,638
,634
,632
,638
,863
,863
,602
,626
,611
,611
,613
,614
,614
,630
,648
,661
,693
,700
,696
,709
,752
,831
,825
,715
,865
,865
,865
,865
,862
,456
,494
,480
,569
,865
,865
,796
,323
,427
,393
,388
,357
,334
,327
,303
,292
,297
,264
,274
,257
,213
,193
,863
,864
,865
,864
,864
,865
,865
,864
,865
,865
,187
,186
,186
,186
,187
,187
,187
,186
,187
,187
,186
,186
,187
,187
,187
,187
,187
,187
,198
,776
,362
,540
,554
,683
,510
,547
,432
,635
,522
,546
,542
,541
,541
,542
,542
,541
,542
,541
,562
,691
,766
,829
,851
,855
,808
,691
,628
,546
,569
,538
,489
,577
,770
,625
,237
,476
,398
,315
,261
,187
,186
,187
,187
,187
,187
,188
,187
,187
,187
,187
,187
,187
,187
,187
,187
,187
,287
,378
,437
,418
,507
,540
,605
,645
,710
,761
,784
,859
,861
,862
,861
,862
,861
,862
,864
,864
,865
,864
,865
,865
,865
,865
,865
,865
,865
,865
,865
,865
,865
,865
,865
,865
,865
,865
,865
,865
,865
,865
,865
,865
,865
,865
,865
,865
,865
,865
,865
,865
,865
,865
,865
,865
,865
,865
,865
,865
,865
,864
,861
,857
,857
,837
,797
,768
,732
,699
,680
,650
,638
,625
,611
,578
,558
,518
,472
,448
,420
,400
,386
,367
,348
,335
,329
,302
,288
,280
,249
,237
,207
,203
,196
,216
,207
,194
,202
,208
,237
,360
,317
,187
,186
,187
,186
,214
,236
,231
,239
,254
,263
,274
,287
,305
,311
,303
,282
,247
,225
,214
,235
,244
,244
,244
,267
,266
,279
,290
,303
,308
,313
,323
,328
,317
,330
,367
,366
,369
,386
,395
,445
,552
,493
,186
,262
,413
,434
,436
,438
,456
,464
,467
,484
,507
,523
,524
,522
,512
,504
,477
,455
,459
,445
,447
,452
,459
,409
,380
,186
,186
,186
,185
,185
,186
,186
,185
,186
,186
,186
,304
,316
,352
,455
,488
,543
,592
,667
,731
,781
,853
,483
,622
,525
,542
,539
,539
,540
,540
,539
,539
,537
,500
,462
,457
,473
,479
,491
,484
,456
,457
,431
,363
,342
,336
,321
,324
,356
,350
,352
,371
,402
,198
,554
,423
,537
,516
,528
,528
,860
,284
,506
,186
,186
,428
,545
,534
,532
,536
,536
,526
,539
,535
,186
,736
,423
,495
,577
,540
,647
,514
,528
,562
,434
,861
,186
,615
,507
,461
,813
,515
,576
,544
,541
,308
,207
,558
,707
,565
,186
,550
,855
,523
,531
,514
,861
,488
,596
,487
,433
,512
,510
,591
,551
,484
,433
,610
,521
,507
,621
,583
,533
,539
,539
,435
,186
,380
,536
,520
,526
,527
,531
,532
,467
,542
,519
,379
,593
,522
,521
,518
,515
,435
,530
,524
,532
,186
,186
,186
,186
,601
,519
,539
,536
,537
,537
,537
,543
,754
,336
,186
,185
,498
,628
,481
,553
,431
,618
,626
,523
,553
,541
,475
,667
,528
,519
,497
,564
,570
,565
,521
,543
,863
,801
,490
,525
,487
,652
,504
,553
,517
,613
,535
,186
,722
,530
,563
,639
,541
,642
,557
,456
,588
,511
,791
,587
,523
,561
,532
,500
,499
,534
,542
,560
,528
,863
,715
,541
,535
,538
,560
,580
,548
,522
,557
,816
,228
,588
,585
,532
,523
,523
,532
,545
,556
,540
,406
,538
,556
,537
,531
,553
,519
,545
,544
,532
,195
,186
,371
,578
,513
,569
,494
,535
,547
,578
,559
,424
,186
,336
,571
,503
,556
,531
,545
,533
,563
,536
,547
,486
,688
,359
,668
,581
,560
,537
,539
,539
,539
,539
,543
,572
,594
,636
,651
,665
,673
,689
,749
,829
,744
,365
,614
,704
,715
,712
,684
,681
,682
,690
,715
,723
,749
,761
,769
,770
,768
,739
,721
,732
,715
,719
,722
,716
,716
,705
,688
,665
,633
,624
,609
,585
,569
,549
,530
,509
,479
,424
,400
,415
,430
,518
,551
,514
,520
,521
,578
,652
,380
,186
,444
,471
,488
,511
,512
,528
,549
,543
,560
,580
,579
,582
,578
,562
,522
,510
,497
,481
,478
,477
,491
,452
,434
,440
,447
,436
,445
,448
,461
,455
,471
,470
,474
,457
,463
,493
,496
,490
,508
,532
,573
,690
,793
,443
,417
,589
,615
,608
,625
,643
,656
,675
,687
,715
,726
,729
,719
,710
,688
,612
,568
,516
,471
,426
,335
,371
,340
,335
,339
,339
,339
,347
,344
,343
,195
,566
,508
,525
,525
,524
,526
,525
,527
,526
,387
,186
,186
,592
,519
,536
,533
,532
,534
,856
,584
,567
,812
,860
,323
,533
,781
,186
,542
,505
,525
,859
,469
,554
,611
,726
,841
,857
,860
,861
,862
,862
,862
,862
,862
,862
,863
,862
,863
,863
,862
,863
,863
,863
,863
,801
,268
,560
,511
,524
,523
,524
,525
,527
,861
,192
,727
,587
,542
,541
,538
,540
,539
,539
,540
,578
,618
,647
,687
,701
,712
,727
,733
,747
,747
,752
,759
,749
,740
,734
,737
,745
,752
,751
,745
,737
,800
,857
,807
,356
,640
,691
,700
,690
,692
,691
,684
,690
,700
,694
,695
,702
,682
,662
,628
,600
,576
,553
,548
,554
,538
,538
,541
,539
,537
,537
,537
,541
,535
,531
,535
,519
,516
,501
,515
,520
,536
,546
,550
,556
,600
,694
,681
,328
,453
,636
,707
,745
,759
,767
,771
,787
,800
,797
,820
,851
,857
,849
,770
,705
,665
,646
,671
,665
,673
,691
,690
,701
,719
,718
,712
,717
,711
,717
,707
,705
,690
,678
,663
,635
,601
,595
,611
,601
,586
,583
,564
,604
,673
,551
,186
,412
,482
,491
,491
,490
,477
,481
,470
,480
,479
,484
,475
,462
,439
,417
,390
,375
,359
,362
,351
,359
,350
,352
,341
,342
,350
,345
,361
,348
,364
,350
,358
,347
,370
,377
,426
,445
,474
,495
,506
,527
,533
,538
,540
,568
,551
,626
,649
,277
,231
,438
,457
,455
,449
,446
,443
,443
,457
,469
,472
,479
,470
,456
,439
,421
,399
,382
,387
,391
,395
,414
,431
,441
,437
,433
,459
,448
,455
,464
,461
,453
,449
,449
,441
,446
,432
,429
,429
,441
,440
,439
,436
,431
,446
,522
,477
,186
,185
,363
,398
,416
,416
,401
,428
,464
,498
,529
,563
,583
,592
,591
,586
,577
,574
,562
,577
,575
,584
,584
,590
,601
,602
,608
,621
,619
,616
,611
,617
,608
,610
,608
,616
,605
,585
,583
,568
,563
,575
,573
,554
,561
,556
,584
,674
,689
,277
,411
,526
,561
,569
,579
,586
,598
,608
,616
,629
,647
,650
,643
,641
,616
,583
,563
,553
,549
,542
,542
,554
,553
,543
,550
,554
,547
,548
,554
,551
,553
,544
,553
,547
,552
,543
,538
,542
,528
,537
,555
,551
,551
,560
,561
,593
,688
,717
,293
,418
,533
,564
,563
,577
,575
,572
,577
,590
,598
,596
,593
,582
,559
,525
,499
,472
,446
,439
,437
,446
,454
,449
,416
,428
,418
,425
,436
,439
,439
,439
,460
,466
,465
,484
,496
,494
,499
,501
,512
,534
,540
,550
,552
,558
,627
,736
,664
,252
,512
,580
,606
,631
,641
,645
,657
,655
,689
,686
,700
,709
,708
,687
,661
,634
,610
,601
,611
,620
,621
,621
,630
,632
,649
,660
,667
,679
,688
,700
,706
,698
,699
,706
,708
,704
,703
,683
,693
,711
,723
,720
,714
,702
,749
,833
,733
,323
,447
,524
,671
,528
,589
,416
,514
,767
,487
,552
,536
,581
,478
,499
,534
,492
,409
,550
,527
,530
,526
,185
,185
,198
,587
,518
,531
,529
,531
,532
,532
,532
,186
,186
,186
,473
,370
,535
,524
,532
,861
,489
,553
,537
,709
,808
,492
,663
,801
,750
,365
,532
,513
,520
,522
,523
,524
,528
,527
,529
,186
,185
,186
,534
,526
,862
,503
,618
,526
,532
,538
,328
,583
,859
,862
,863
,862
,863
,862
,345
,863
,863
,863
,861
,185
,186
,186
,186
,185
,185
,186
,186
,186
,863
,863
,863
,863
,864
,863
,863
,863
,863
,856
,480
,550
,536
,542
,541
,537
,544
,537
,649
,863
,861
,186
,186
,186
,186
,863
,845
,859
,187
,605
,863
,709
,186
,186
,186
,863
,863
,864
,864
,863
,864
,864
,863
,857
,452
,567
,546
,536
,577
,516
,547
,536
,186
,861
,855
,858
,863
,186
,186
,186
,187
,187
,861
,651
,493
,550
,540
,545
,539
,545
,545
,540
,539
,542
,531
,769
,860
,860
,860
,860
,859
,853
,761
,684
,668
,710
,759
,419
,242
,390
,357
,304
,191
,186
,186
,186
,187
,186
,187
,186
,187
,186
,187
,186
,187
,186
,187
,187
,187
,187
,186
,611
,543
,540
,541
,563
,537
,534
,538
,863
,484
,555
,526
,545
,538
,549
,536
,545
,539
,353
,860
,514
,772
,436
,667
,642
,633
,745
,687
,855
,580
,564
,415
,444
,523
,186
,187
,187
,187
,186
,187
,186
,186
,187
,187
,186
,187
,187
,186
,517
,534
,541
,539
,539
,539
,541
,692
,805
,863
,865
,865
,864
,865
,864
,865
,865
,865
,864
,865
,865
,864
,702
,522
,545
,543
,542
,541
,542
,603
,864
,865
,864
,865
,864
,865
,865
,865
,864
,864
,865
,865
,864
,864
,585
,546
,442
,527
,524
,528
,527
,796
,599
,807
,839
,852
,860
,862
,662
,410
,517
,521
,525
,532
,530
,530
,533
,537
,529
,186
,187
,187
,607
,527
,546
,540
,541
,541
,540
,541
,540
,572
,609
,644
,650
,642
,635
,636
,621
,600
,297
,807
,549
,544
,570
,411
,609
,498
,601
,551
,488
,643
,520
,521
,510
,417
,631
,526
,546
,539
,538
,530
,604
,614
,636
,701
,740
,768
,787
,773
,663
,628
,500
,552
,537
,541
,541
,540
,541
,542
,547
,598
,626
,660
,686
,704
,686
,714
,737
,757
,765
,552
,632
,531
,542
,540
,540
,542
,541
,541
,540
,531
,553
,577
,596
,607
,637
,667
,670
,679
,674
,628
,592
,570
,572
,559
,559
,567
,568
,590
,597
,664
,712
,819
,860
,862
,862
,862
,863
,863
,861
,862
,862
,862
,863
,864
,864
,865
,864
,864
,864
,864
,864
,864
,864
,864
,864
,863
,863
,862
,861
,859
,850
,812
,785
,762
,759
,787
,801
,784
,775
,766
,781
,761
,776
,808
,780
,751
,743
,709
,699
,670
,662
,626
,608
,611
,606
,187
,606
,523
,543
,539
,541
,539
,540
,540
,541
,502
,385
,264
,191
,186
,187
,186
,186
,187
,729
,507
,546
,243
,187
,758
,825
,488
,550
,539
,618
,673
,734
,771
,803
,816
,843
,849
,857
,858
,860
,860
,859
,854
,832
,554
,421
,537
,576
,605
,525
,544
,540
,540
,542
,590
,641
,657
,658
,665
,680
,660
,667
,679
,677
,688
,682
,683
,641
,593
,560
,501
,477
,472
,464
,425
,350
,212
,187
,186
,186
,186
,186
,187
,187
,187
,186
,186
,186
,187
,187
,186
,187
,187
,187
,187
,186
,187
,187
,187
,187
,187
,187
,187
,187
,187
,187
,196
,598
,529
,542
,535
,535
,531
,531
,187
,187
,187
,187
,188
,187
,559
,530
,544
,542
,548
,542
,542
,547
,864
,865
,865
,865
,865
,865
,865
,865
,866
,865
,865
,865
,584
,544
,545
,544
,544
,544
,544
,550
,771
,865
,865
,865
,865
,865
,866
,866
,865
,865
,865
,865
,865
,865
,865
,865
,865
,865
,865
,866
,865
,865
,865
,864
,861
,777
,726
,741
,767
,738
,761
,711
,290
,361
,457
,445
,343
,311
,251
,214
,187
,187
,187
,187
,186
,187
,187
,187
,187
,186
,187
,187
,187
,187
,188
,186
,187
,187
,187
,344
,551
,660
,716
,741
,825
,824
,817
,821
,825
,863
,865
,865
,864
,865
,865
,865
,865
,865
,865
,865
,865
,866
,865
,866
,866
,865
,865
,866
,865
,866
,866
,865
,865
,865
,866
,865
,865
,865
,865
,865
,865
,865
,865
,865
,864
,862
,856
,801
,827
,850
,559
,485
,695
,697
,665
,644
,627
,616
,600
,575
,564
,539
,528
,501
,470
,438
,391
,355
,321
,298
,287
,280
,264
,243
,237
,227
,209
,204
,210
,198
,189
,189
,204
,204
,202
,205
,200
,231
,311
,333
,187
,187
,186
,187
,187
,206
,208
,216
,228
,246
,272
,286
,290
,289
,286
,264
,241
,232
,222
,225
,228
,248
,260
,265
,270
,290
,290
,290
,315
,318
,314
,321
,347
,341
,339
,361
,390
,393
,396
,407
,415
,467
,562
,490
,186
,283
,430
,457
,475
,486
,508
,527
,533
,568
,595
,634
,639
,656
,666
,650
,623
,629
,628
,626
,628
,656
,661
,656
,659
,654
,646
,636
,634
,630
,613
,609
,610
,613
,608
,608
,606
,604
,587
,586
,608
,617
,614
,626
,614
,620
,694
,768
,521
,364
,600
,671
,709
,722
,729
,740
,746
,744
,758
,763
,772
,780
,772
,750
,711
,687
,662
,640
,650
,647
,637
,642
,634
,625
,615
,596
,598
,582
,564
,550
,547
,537
,528
,529
,521
,515
,507
,503
,503
,498
,491
,496
,490
,479
,483
,475
,469
,473
,475
,473
,473
,460
,472
,540
,640
,503
,186
,416
,443
,458
,467
,468
,466
,477
,486
,485
,502
,517
,525
,520
,516
,491
,462
,445
,443
,441
,436
,442
,444
,450
,446
,448
,456
,455
,457
,463
,472
,462
,473
,479
,481
,486
,488
,493
,495
,496
,500
,510
,502
,505
,519
,515
,518
,530
,533
,533
,536
,534
,555
,554
,548
,556
,553
,579
,668
,678
,453
,383
,551
,578
,583
,585
,595
,596
,593
,611
,619
,632
,639
,646
,637
,612
,577
,553
,538
,525
,525
,532
,524
,521
,527
,526
,521
,526
,523
,519
,523
,518
,519
,516
,512
,517
,517
,514
,509
,521
,518
,511
,518
,516
,513
,509
,518
,509
,516
,503
,521
,517
,509
,509
,519
,551
,631
,591
,273
,380
,495
,517
,527
,532
,532
,542
,553
,559
,584
,609
,614
,612
,613
,591
,559
,527
,518
,509
,520
,517
,525
,513
,506
,506
,482
,488
,498
,502
,505
,507
,511
,519
,484
,492
,506
,509
,467
,481
,479
,499
,504
,469
,476
,448
,384
,354
,310
,297
,263
,268
,267
,268
,376
,490
,356
,186
,186
,414
,409
,435
,433
,418
,431
,443
,459
,465
,485
,518
,531
,533
,500
,469
,277
,205
,186
,186
,185
,185
,186
,185
,185
,185
,186
,186
,186
,186
,186
,186
,185
,186
,185
,186
,185
,185
,186
,185
,186
,186
,186
,186
,186
,186
,861
,863
,863
,863
,863
,864
,863
,863
,864
,864
,863
,864
,864
,863
,863
,863
,864
,864
,864
,864
,864
,863
,863
,864
,863
,863
,863
,863
,863
,863
,863
,863
,863
,863
,864
,864
,864
,863
,864
,863
,863
,863
,864
,863
,863
,861
,780
,632
,567
,506
,423
,337
,231
,186
,186
,186
,186
,186
,186
,187
,186
,186
,186
,186
,186
,186
,187
,187
,186
,187
,187
,186
,186
,187
,186
,186
,186
,186
,187
,187
,186
,186
,187
,187
,187
,186
,187
,186
,187
,266
,285
,286
,263
,227
,217
,233
,211
,186
,186
,187
,187
,187
,186
,186
,187
,187
,187
,186
,186
,187
,186
,186
,188
,355
,402
,459
,527
,554
,582
,592
,626
,643
,678
,743
,794
,837
,859
,862
,863
,864
,864
,864
,864
,864
,864
,864
,864
,864
,864
,865
,864
,864
,865
,864
,864
,864
,864
,864
,864
,864
,864
,864
,864
,864
,864
,864
,864
,864
,864
,864
,863
,864
,863
,863
,862
,861
,798
,733
,694
,658
,637
,614
,596
,579
,549
,535
,516
,490
,474
,469
,442
,426
,419
,403
,389
,375
,362
,343
,335
,347
,352
,339
,332
,338
,357
,444
,506
,186
,187
,201
,334
,323
,334
,331
,341
,358
,356
,373
,397
,409
,411
,408
,401
,373
,356
,349
,354
,350
,356
,366
,376
,370
,385
,396
,400
,402
,423
,425
,430
,433
,435
,445
,441
,448
,458
,455
,454
,450
,454
,468
,478
,482
,490
,487
,507
,599
,683
,408
,247
,483
,501
,514
,520
,525
,537
,544
,554
,562
,575
,593
,597
,589
,572
,548
,520
,497
,489
,497
,489
,483
,492
,494
,484
,487
,489
,493
,488
,488
,489
,493
,484
,489
,495
,492
,494
,500
,501
,500
,498
,505
,500
,491
,517
,525
,522
,523
,533
,542
,623
,734
,498
,255
,512
,532
,552
,557
,553
,568
,573
,575
,583
,603
,611
,617
,614
,603
,576
,547
,536
,529
,522
,513
,522
,522
,512
,522
,526
,524
,521
,525
,530
,523
,524
,532
,527
,530
,530
,532
,528
,533
,534
,547
,541
,538
,550
,541
,537
,533
,528
,542
,556
,557
,559
,557
,563
,642
,759
,562
,256
,544
,560
,569
,573
,585
,590
,587
,605
,609
,616
,635
,639
,631
,615
,603
,576
,549
,530
,530
,525
,520
,519
,521
,521
,512
,515
,518
,514
,508
,512
,511
,507
,507
,515
,516
,512
,513
,515
,506
,506
,510
,512
,504
,511
,509
,514
,499
,510
,530
,524
,526
,528
,527
,558
,666
,666
,268
,403
,509
,525
,525
,535
,536
,545
,546
,553
,570
,581
,584
,592
,582
,566
,538
,516
,503
,498
,493
,499
,504
,495
,502
,510
,500
,501
,506
,507
,507
,503
,507
,516
,509
,512
,521
,517
,514
,519
,520
,512
,519
,523
,526
,518
,518
,517
,531
,528
,536
,539
,533
,537
,615
,728
,576
,190
,495
,524
,535
,545
,555
,551
,559
,572
,580
,586
,601
,616
,606
,590
,574
,546
,524
,510
,512
,514
,512
,508
,516
,515
,510
,516
,516
,514
,512
,517
,519
,518
,512
,524
,526
,522
,523
,531
,529
,530
,534
,539
,529
,528
,533
,541
,547
,548
,556
,553
,554
,609
,707
,656
,262
,460
,547
,562
,568
,580
,598
,608
,621
,634
,660
,682
,717
,741
,746
,747
,738
,731
,729
,725
,721
,719
,717
,713
,721
,702
,693
,687
,666
,649
,648
,650
,642
,623
,627
,623
,610
,604
,604
,600
,580
,567
,549
,549
,549
,549
,541
,530
,532
,561
,655
,660
,303
,186
,187
,187
,187
,186
,187
,187
,187
,187
,186
,186
,187
,186
,187
,186
,213
,708
,847
,186
,187
,187
,596
,864
,864
,864
,864
,865
,864
,865
,865
,864
,865
,865
,865
,864
,865
,865
,864
,865
,864
,865
,865
,864
,864
,864
,864
,864
,865
,864
,863
,864
,864
,863
,864
,863
,863
,863
,863
,862
,862
,862
,861
,860
,854
,799
,756
,723
,692
,674
,656
,637
,628
,609
,605
,585
,572
,562
,555
,536
,536
,527
,513
,514
,504
,498
,489
,493
,480
,475
,480
,463
,455
,465
,474
,472
,479
,467
,470
,474
,550
,662
,548
,187
,329
,446
,464
,464
,468
,483
,476
,484
,497
,502
,518
,535
,541
,539
,540
,529
,484
,483
,470
,467
,464
,482
,473
,483
,497
,499
,508
,513
,526
,537
,548
,542
,542
,554
,545
,548
,550
,553
,548
,551
,551
,548
,540
,542
,551
,565
,558
,557
,555
,552
,573
,661
,762
,520
,222
,488
,518
,542
,542
,540
,536
,535
,538
,545
,551
,552
,572
,574
,567
,552
,530
,498
,471
,441
,424
,410
,396
,377
,378
,387
,380
,378
,370
,322
,300
,297
,288
,299
,316
,311
,289
,303
,286
,267
,285
,304
,320
,344
,333
,316
,318
,323
,307
,338
,343
,344
,361
,389
,456
,200
,186
,186
,186
,186
,186
,187
,186
,187
,187
,186
,186
,187
,187
,186
,187
,186
,186
,186
,186
,186
,186
,187
,186
,186
,187
,187
,186
,187
,187
,201
,390
,435
,481
,528
,576
,618
,684
,743
,768
,807
,851
,857
,860
,861
,862
,862
,862
,862
,862
,863
,863
,863
,863
,863
,863
,864
,864
,861
,747
,859
,861
,862
,862
,862
,862
,862
,861
,862
,862
,862
,862
,863
,862
,861
,859
,829
,778
,772
,760
,749
,744
,728
,718
,711
,703
,692
,683
,673
,662
,661
,643
,629
,633
,621
,609
,609
,602
,588
,589
,587
,574
,580
,568
,561
,544
,541
,540
,534
,520
,525
,528
,536
,602
,720
,636
,227
,421
,534
,549
,546
,561
,562
,556
,558
,569
,567
,577
,595
,594
,603
,594
,569
,552
,530
,505
,502
,505
,500
,505
,515
,511
,513
,515
,514
,515
,520
,516
,513
,519
,510
,512
,512
,509
,504
,515
,505
,502
,507
,511
,501
,508
,501
,494
,503
,516
,510
,518
,518
,513
,526
,608
,715
,555
,187
,451
,503
,530
,535
,533
,545
,550
,559
,568
,584
,593
,612
,622
,621
,618
,589
,559
,542
,518
,513
,510
,507
,482
,478
,461
,444
,434
,402
,382
,395
,403
,413
,427
,438
,436
,453
,458
,462
,472
,477
,475
,489
,491
,490
,487
,502
,500
,520
,541
,580
,643
,696
,742
,830
,861
,855
,394
,669
,715
,718
,721
,718
,704
,705
,714
,705
,711
,717
,724
,720
,716
,698
,668
,641
,613
,596
,590
,573
,577
,575
,565
,557
,565
,551
,546
,547
,544
,535
,534
,529
,521
,535
,529
,522
,521
,527
,518
,518
,516
,508
,496
,497
,509
,512
,511
,503
,507
,511
,549
,651
,666
,339
,271
,498
,508
,519
,535
,533
,537
,540
,542
,548
,559
,577
,588
,599
,595
,578
,555
,534
,514
,516
,527
,517
,527
,552
,591
,649
,701
,794
,836
,855
,859
,861
,862
,862
,863
,863
,864
,864
,864
,864
,864
,864
,864
,863
,863
,863
,863
,863
,863
,862
,863
,863
,863
,846
,519
,750
,745
,734
,708
,697
,681
,665
,658
,663
,667
,685
,712
,717
,714
,688
,642
,606
,572
,545
,531
,526
,512
,501
,497
,488
,474
,470
,457
,446
,442
,437
,420
,426
,421
,405
,415
,412
,392
,394
,385
,377
,381
,409
,405
,411
,415
,420
,439
,530
,638
,449
,186
,338
,447
,461
,463
,469
,485
,481
,483
,505
,522
,530
,555
,560
,553
,560
,544
,523
,512
,516
,506
,508
,520
,512
,519
,532
,518
,523
,529
,520
,516
,520
,506
,506
,504
,496
,487
,489
,481
,463
,460
,444
,424
,420
,413
,391
,381
,371
,356
,367
,445
,535
,392
,187
,187
,349
,383
,398
,413
,408
,418
,423
,438
,448
,455
,476
,493
,489
,492
,441
,367
,264
,187
,187
,187
,186
,187
,187
,187
,186
,187
,186
,186
,186
,187
,186
,187
,186
,187
,187
,187
,187
,187
,187
,187
,186
,187
,186
,187
,187
,186
,303
,487
,557
,758
,859
,862
,777
,727
,863
,864
,865
,865
,865
,865
,864
,865
,864
,865
,865
,865
,865
,865
,864
,865
,864
,864
,864
,863
,860
,739
,645
,592
,519
,464
,318
,316
,194
,187
,187
,187
,187
,187
,187
,187
,187
,187
,186
,186
,187
,187
,186
,187
,187
,187
,187
,187
,186
,187
,187
,187
,766
,865
,865
,865
,866
,865
,865
,865
,865
,865
,865
,865
,865
,865
,865
,865
,865
,865
,865
,865
,865
,866
,865
,865
,865
,865
,865
,865
,866
,865
,865
,865
,865
,865
,864
,864
,863
,862
,856
,791
,718
,674
,633
,577
,440
,401
,306
,283
,265
,347
,569
,756
,692
,863
,864
,865
,864
,865
,865
,864
,864
,864
,863
,862
,861
,852
,761
,671
,530
,339
,187
,187
,187
,187
,187
,187
,187
,186
,187
,186
,186
,187
,187
,188
,186
,187
,214
,520
,583
,651
,731
,725
,803
,844
,853
,858
,857
,861
,863
,864
,851
,669
,849
,835
,738
,635
,621
,555
,535
,517
,508
,502
,519
,521
,528
,561
,536
,547
,520
,493
,494
,458
,462
,429
,409
,422
,449
,461
,449
,431
,413
,389
,388
,382
,395
,412
,451
,440
,334
,187
,187
,187
,187
,187
,187
,187
,187
,187
,187
,187
,186
,187
,187
,187
,188
,188
,187
,188
,187
,188
,187
,187
,187
,188
,186
,187
,187
,187
,187
,187
,188
,187
,675
,865
,865
,865
,866
,865
,866
,865
,866
,866
,866
,866
,865
,865
,866
,866
,865
,866
,865
,866
,866
,865
,866
,866
,865
,866
,866
,865
,865
,865
,866
,865
,865
,866
,866
,866
,865
,866
,866
,866
,865
,866
,865
,866
,866
,865
,866
,866
,866
,865
,866
,866
,865
,864
,863
,853
,740
,710
,683
,653
,617
,584
,559
,527
,496
,488
,468
,437
,416
,396
,370
,345
,335
,327
,312
,299
,264
,260
,261
,314
,389
,192
,187
,188
,187
,187
,186
,188
,188
,187
,187
,187
,188
,214
,222
,231
,256
,236
,211
,197
,187
,187
,188
,187
,186
,191
,196
,195
,202
,210
,206
,222
,222
,205
,217
,231
,224
,232
,246
,247
,253
,263
,267
,274
,288
,298
,286
,289
,281
,244
,239
,252
,229
,260
,256
,263
,283
,290
,318
,405
,499
,340
,186
,186
,382
,381
,409
,422
,442
,462
,484
,487
,514
,533
,554
,575
,571
,565
,552
,516
,480
,462
,451
,431
,412
,392
,377
,379
,373
,379
,378
,373
,366
,370
,377
,383
,399
,397
,399
,402
,416
,427
,438
,448
,462
,470
,482
,487
,497
,508
,514
,525
,534
,555
,575
,586
,594
,606
,616
,642
,720
,815
,625
,321
,599
,635
,638
,651
,662
,665
,673
,685
,687
,699
,719
,720
,729
,729
,710
,694
,666
,637
,625
,624
,611
,614
,615
,602
,603
,605
,595
,589
,592
,584
,572
,577
,573
,564
,571
,562
,556
,560
,552
,545
,550
,546
,537
,535
,540
,523
,523
,538
,533
,530
,531
,520
,521
,557
,632
,715
,481
,211
,468
,502
,505
,511
,523
,524
,523
,537
,547
,549
,568
,579
,582
,585
,579
,550
,531
,517
,503
,495
,507
,494
,494
,505
,492
,493
,500
,500
,498
,506
,500
,495
,504
,500
,499
,505
,505
,507
,511
,500
,506
,499
,499
,509
,525
,518
,518
,528
,526
,562
,650
,699
,401
,250
,496
,524
,535
,550
,547
,549
,565
,565
,573
,607
,612
,619
,633
,616
,605
,581
,550
,524
,520
,515
,509
,515
,514
,509
,515
,518
,513
,516
,518
,515
,514
,519
,513
,515
,510
,504
,508
,502
,497
,502
,523
,516
,521
,528
,519
,538
,619
,707
,528
,187
,457
,517
,540
,541
,537
,549
,552
,554
,568
,578
,590
,605
,619
,606
,602
,577
,546
,532
,515
,505
,509
,516
,508
,518
,523
,511
,514
,523
,516
,524
,528
,522
,524
,528
,519
,517
,509
,507
,518
,539
,537
,532
,545
,549
,592
,681
,689
,341
,330
,526
,550
,560
,572
,573
,579
,587
,594
,602
,619
,629
,645
,651
,638
,622
,598
,569
,551
,552
,550
,548
,555
,544
,551
,555
,546
,542
,549
,546
,547
,552
,551
,538
,544
,531
,528
,551
,556
,544
,556
,558
,555
,639
,734
,563
,189
,477
,535
,559
,569
,565
,570
,577
,572
,580
,592
,604
,614
,625
,617
,603
,587
,552
,529
,522
,508
,504
,512
,505
,504
,508
,506
,498
,504
,506
,495
,500
,501
,489
,496
,480
,475
,496
,507
,499
,500
,512
,503
,569
,655
,594
,194
,336
,493
,511
,529
,524
,527
,536
,535
,537
,551
,567
,566
,577
,581
,562
,548
,524
,494
,492
,494
,488
,500
,517
,517
,521
,533
,524
,531
,555
,562
,579
,587
,590
,594
,595
,606
,640
,655
,633
,633
,649
,662
,724
,848
,625
,318
,615
,658
,670
,679
,688
,681
,682
,699
,697
,709
,717
,718
,745
,751
,725
,702
,685
,659
,639
,651
,638
,633
,633
,625
,607
,628
,626
,673
,692
,691
,665
,662
,660
,657
,638
,634
,589
,543
,551
,533
,560
,632
,734
,402
,218
,469
,479
,498
,492
,498
,500
,502
,482
,527
,511
,505
,522
,509
,499
,472
,463
,460
,436
,446
,426
,449
,445
,432
,447
,444
,430
,440
,429
,434
,418
,394
,416
,431
,418
,416
,416
,412
,488
,577
,427
,186
,233
,369
,354
,317
,268
,247
,250
,252
,269
,284
,285
,268
,266
,256
,210
,187
,185
,186
,185
,186
,186
,186
,186
,186
,186
,186
,186
,186
,186
,185
,186
,186
,186
,185
,186
,186
,186
,186
,186
,410
,186
,186
,188
,416
,427
,476
,505
,529
,562
,665
,685
,696
,724
,742
,713
,709
,703
,691
,684
,686
,710
,719
,721
,739
,763
,765
,769
,781
,786
,781
,781
,781
,779
,769
,773
,796
,827
,838
,851
,855
,855
,860
,862
,860
,492
,787
,821
,823
,812
,821
,816
,815
,820
,834
,836
,843
,834
,840
,835
,826
,800
,794
,776
,789
,794
,792
,794
,795
,798
,792
,774
,761
,754
,736
,715
,699
,683
,663
,653
,634
,626
,600
,587
,597
,592
,580
,606
,599
,597
,688
,810
,551
,287
,551
,578
,578
,579
,585
,588
,584
,585
,593
,598
,599
,596
,584
,568
,531
,504
,481
,461
,453
,451
,448
,435
,442
,445
,455
,451
,450
,451
,445
,438
,441
,441
,439
,433
,437
,434
,426
,432
,429
,415
,409
,434
,439
,435
,427
,435
,459
,538
,604
,252
,186
,411
,425
,441
,437
,446
,460
,465
,470
,486
,492
,499
,499
,507
,500
,476
,452
,446
,440
,437
,439
,449
,454
,449
,461
,471
,466
,469
,483
,486
,483
,504
,507
,505
,506
,512
,517
,517
,521
,516
,522
,502
,509
,534
,529
,523
,537
,535
,589
,693
,616
,193
,442
,520
,549
,545
,543
,560
,575
,591
,611
,633
,649
,655
,653
,645
,628
,604
,595
,593
,581
,578
,596
,598
,619
,632
,661
,670
,668
,671
,679
,674
,670
,693
,691
,686
,687
,687
,678
,701
,712
,696
,693
,686
,675
,682
,678
,671
,661
,656
,676
,771
,811
,402
,440
,576
,595
,591
,590
,585
,577
,577
,582
,585
,590
,593
,584
,577
,550
,517
,494
,474
,463
,459
,457
,451
,448
,449
,460
,443
,448
,452
,450
,448
,449
,448
,445
,448
,449
,453
,452
,446
,451
,446
,441
,456
,476
,473
,472
,473
,487
,563
,675
,385
,187
,436
,447
,457
,436
,427
,431
,429
,424
,438
,438
,455
,454
,458
,452
,425
,406
,401
,403
,399
,401
,390
,413
,413
,414
,427
,411
,409
,419
,413
,413
,414
,395
,402
,406
,424
,427
,440
,430
,446
,470
,487
,493
,510
,516
,529
,623
,733
,523
,218
,539
,612
,629
,646
,661
,675
,680
,699
,720
,734
,744
,759
,762
,746
,708
,683
,658
,639
,634
,629
,627
,620
,619
,620
,612
,599
,579
,584
,574
,567
,571
,567
,565
,564
,560
,555
,545
,551
,579
,576
,581
,595
,596
,651
,740
,595
,216
,507
,575
,599
,610
,614
,615
,623
,626
,635
,665
,676
,676
,679
,661
,631
,591
,570
,554
,545
,539
,538
,533
,532
,525
,530
,526
,520
,522
,523
,508
,515
,514
,513
,512
,508
,513
,500
,492
,517
,530
,524
,528
,540
,552
,631
,686
,366
,297
,514
,546
,555
,556
,558
,564
,577
,578
,596
,614
,630
,625
,630
,610
,575
,547
,544
,549
,564
,572
,586
,593
,592
,608
,620
,616
,612
,613
,621
,607
,613
,616
,603
,600
,605
,595
,596
,584
,591
,618
,674
,678
,699
,697
,744
,832
,720
,337
,591
,683
,692
,707
,711
,705
,702
,694
,694
,699
,696
,689
,677
,657
,615
,576
,556
,538
,520
,516
,515
,501
,495
,497
,507
,500
,493
,497
,491
,489
,489
,489
,482
,471
,471
,471
,469
,459
,448
,446
,455
,461
,457
,450
,438
,442
,507
,613
,443
,186
,334
,420
,419
,413
,405
,405
,418
,438
,448
,464
,486
,493
,489
,488
,450
,412
,390
,391
,387
,385
,392
,411
,416
,415
,429
,443
,441
,445
,453
,465
,462
,477
,491
,507
,510
,532
,536
,552
,567
,601
,628
,647
,650
,670
,753
,830
,644
,322
,625
,672
,688
,690
,685
,686
,691
,696
,699
,717
,731
,744
,736
,719
,691
,636
,598
,580
,568
,547
,540
,539
,537
,524
,523
,528
,519
,510
,520
,512
,512
,491
,495
,485
,479
,471
,482
,498
,495
,502
,503
,500
,548
,637
,584
,187
,398
,496
,511
,516
,517
,505
,488
,489
,500
,513
,523
,541
,550
,540
,517
,493
,472
,463
,461
,467
,474
,471
,480
,491
,481
,483
,491
,497
,495
,492
,497
,503
,497
,495
,492
,489
,505
,520
,529
,529
,522
,537
,616
,690
,426
,233
,514
,559
,574
,580
,580
,578
,595
,596
,605
,616
,636
,636
,617
,602
,582
,550
,527
,531
,520
,513
,509
,511
,516
,504
,509
,509
,487
,468
,476
,455
,446
,413
,417
,418
,401
,400
,403
,387
,425
,504
,547
,187
,186
,391
,375
,374
,359
,360
,350
,342
,344
,331
,283
,264
,252
,232
,243
,217
,208
,208
,220
,256
,322
,352
,392
,450
,476
,490
,517
,547
,553
,551
,549
,577
,578
,605
,621
,548
,513
,484
,457
,466
,448
,186
,185
,255
,435
,460
,494
,509
,530
,568
,608
,633
,649
,676
,671
,665
,675
,668
,626
,559
,424
,306
,245
,310
,343
,701
,862
,862
,862
,849
,476
,544
,529
,541
,531
,540
,544
,553
,861
,862
,861
,860
,862
,641
,185
,375
,811
,303
,186
,528
,493
,186
,185
,185
,186
,186
,186
,186
,185
,186
,186
,186
,186
,186
,186
,186
,185
,186
,186
,186
,186
,186
,835
,863
,186
,186
,186
,186
,186
,186
,186
,186
,186
,186
,187
,864
,863
,863
,225
,480
,863
,244
,187
,187
,186
,186
,566
,518
,559
,545
,531
,537
,549
,540
,186
,186
,187
,363
,552
,557
,553
,555
,540
,541
,539
,531
,862
,262
,186
,186
,186
,186
,187
,187
,186
,220
,588
,530
,547
,539
,535
,542
,864
,864
,864
,865
,864
,864
,864
,864
,864
,864
,864
,864
,864
,864
,864
,864
,864
,864
,864
,864
,864
,864
,864
,812
,864
,864
,186
,621
,864
,864
,186
,864
,864
,864
,864
,864
,864
,846
,187
,864
,186
,186
,187
,187
,187
,187
,187
,186
,186
,187
,187
,186
,186
,187
,187
,186
,186
,186
,186
,187
,187
,186
,187
,186
,187
,186
,187
,187
,186
,187
,187
,187
,187
,187
,187
,281
,596
,189
,187
,187
,186
,187
,865
,865
,865
,865
,864
,865
,865
,865
,865
,865
,865
,865
,865
,865
,864
,187
,186
,187
,187
,187
,187
,187
,187
,187
,187
,865
,865
,865
,865
,865
,865
,865
,865
,865
,865
,865
,865
,865
,866
,865
,865
,865
,865
,865
,865
,865
,865
,865
,865
,865
,865
,865
,865
,865
,865
,865
,865
,865
,865
,865
,865
,865
,830
,865
,865
,865
,865
,865
,865
,865
,861
,186
,188
,187
,187
,187
,187
,187
,188
,187
,187
,187
,187
,187
,187
,187
,187
,188
,188
,188
,187
,188
,187
,187
,188
,187
,188
,188
,552
,445
,865
,865
,865
,865
,866
,866
,187
,187
,188
,187
,187
,187
,187
,188
,186
,188
,187
,187
,187
,187
,186
,187
,187
,187
,188
,188
,187
,188
,187
,188
,187
,188
,187
,187
,452
,188
,188
,188
,187
,188
,187
,239
,188
,187
,187
,600
,187
,187
,187
,243
,187
,187
,548
,187
,188
,187
,866
,187
,188
,248
,865
,187
,187
,866
,507
,188
,187
,866
,187
,188
,577
,866
,188
,187
,866
,866
,188
,188
,866
,566
,188
,854
,866
,188
,188
,866
,866
,187
,187
,866
,753
,187
,861
,866
,187
,188
,866
,867
,187
,188
,866
,849
,188
,848
,866
,416
,187
,866
,866
,188
,388
,866
,866
,188
,865
,866
,702
,187
,866
,866
,188
,278
,866
,866
,188
,860
,867
,755
,188
,866
,866
,303
,431
,866
,866
,187
,864
,866
,865
,188
,866
,866
,531
,402
,866
,866
,187
,865
,866
,866
,188
,866
,866
,364
,187
,866
,866
,187
,560
,867
,863
,188
,865
,866
,187
,187
,866
,866
,187
,529
,866
,866
,187
,866
,866
,572
,188
,866
,866
,187
,617
,866
,866
,188
,866
,866
,676
,188
,866
,866
,187
,470
,866
,866
,187
,866
,866
,866
,188
,866
,867
,551
,652
,866
,866
,187
,866
,867
,865
,187
,866
,866
,187
,188
,866
,865
,188
,829
,866
,865
,188
,861
,866
,187
,187
,866
,865
,188
,188
,866
,189
,188
,776
,866
,187
,187
,866
,863
,188
,188
,866
,321
,188
,749
,866
,187
,188
,863
,712
,187
,187
,866
,188
,188
,188
,866
,188
,188
,702
,754
,188
,188
,866
,281
,188
,193
,866
,188
,188
,835
,866
,188
,188
,866
,347
,188
,187
,866
,217
,188
,866
,866
,627
,865
,866
,866
,867
,866
,867
,866
,866
,867
,866
,866
,866
,866
,866
,866
,866
,866
,866
,188
,865
,866
,187
,188
,866
,866
,187
,865
,866
,866
,482
,866
,866
,243
,188
,865
,678
,188
,188
,187
,188
,188
,188
,187
,188
,187
,188
,187
,188
,187
,187
,187
,188
,188
,188
,188
,187
,188
,188
,187
,187
,188
,188
,188
,187
,188
,188
,187
,188
,188
,188
,188
,188
,188
,188
,187
,187
,188
,187
,188
,187
,187
,188
,866
,865
,622
,866
,866
,867
,866
,866
,867
,867
,867
,867
,867
,867
,867
,866
,867
,867
,866
,866
,867
,866
,866
,866
,866
,866
,866
,400
,188
,792
,660
,187
,209
,865
,865
,640
,785
,865
,705
,639
,864
,866
,864
,864
,866
,866
,864
,867
,866
,867
,188
,601
,866
,187
,188
,188
,188
,187
,188
,188
,188
,187
,188
,187
,188
,188
,188
,188
,187
,188
,187
,188
,187
,188
,188
,188
,188
,188
,188
,188
,187
,188
,188
,188
,187
,187
,188
,187
,187
,188
,188
,188
,188
,188
,188
,188
,188
,187
,189
,188
,187
,196
,396
,861
,747
,782
,864
,866
,866
,866
,867
,867
,866
,867
,867
,867
,867
,866
,867
,866
,867
,867
,867
,867
,867
,867
,867
,867
,867
,867
,866
,867
,866
,867
,867
,867
,866
,867
,867
,867
,866
,867
,867
,867
,867
,867
,867
,867
,867
,867
,867
,867
,867
,867
,867
,866
,867
,867
,867
,866
,867
,867
,867
,866
,867
,867
,867
,867
,867
,867
,867
,867
,866
,671
,571
,440
,418
,393
,220
,253
,251
,188
,862
,705
,864
,486
,531
,513
,188
,188
,187
,188
,188
,187
,188
,188
,188
,188
,866
,867
,866
,866
,866
,866
,864
,865
,866
,865
,866
,867
,866
,866
,188
,570
,866
,865
,864
,866
,866
,188
,550
,867
,188
,188
,866
,867
,767
,210
,866
,866
,863
,864
,862
,187
,629
,569
,210
,330
,429
,441
,437
,469
,860
,858
,821
,790
,848
,859
,686
,713
,814
,687
,199
,488
,736
,440
,302
,726
,738
,500
,526
,700
,559
,432
,630
,703
,809
,859
,854
,851
,721
,766
,840
,712
,507
,560
,726
,466
,437
,569
,624
,425
,370
,531
,471
,244
,314
,485
,303
,187
,188
,866
,188
,188
,672
,865
,188
,188
,862
,866
,337
,378
,866
,863
,241
,631
,512
,189
,283
,586
,368
,187
,360
,588
,326
,243
,568
,573
,569
,471
,505
,413
,401
,465
,514
,489
,407
,459
,460
,370
,447
,619
,589
,391
,510
,783
,496
,276
,722
,819
,452
,433
,787
,753
,505
,664
,848
,663
,401
,691
,820
,520
,578
,851
,703
,487
,635
,861
,720
,519
,657
,771
,587
,618
,651
,483
,387
,455
,501
,504
,405
,695
,710
,860
,865
,866
,866
,866
,865
,866
,865
,866
,865
,865
,788
,745
,764
,647
,557
,608
,670
,582
,523
,613
,626
,558
,286
,813
,757
,394
,567
,850
,531
,205
,436
,652
,513
,322
,622
,851
,186
,187
,188
,219
,188
,188
,190
,186
,187
,187
,306
,187
,188
,416
,368
,187
,196
,864
,676
,197
,225
,291
,258
,314
,486
,444
,398
,462
,525
,418
,382
,489
,560
,603
,479
,585
,448
,403
,520
,601
,495
,477
,468
,595
,367
,270
,726
,543
,199
,413
,709
,335
,187
,444
,449
,300
,441
,470
,514
,343
,463
,538
,439
,341
,607
,584
,494
,459
,558
,623
,373
,487
,528
,510
,430
,465
,859
,314
,514
,730
,700
,436
,561
,819
,634
,450
,673
,791
,493
,462
,737
,683
,264
,728
,857
,463
,187
,658
,863
,632
,268
,513
,726
,270
,331
,862
,859
,443
,763
,863
,838
,780
,861
,864
,595
,380
,858
,861
,427
,526
,855
,578
,187
,526
,651
,293
,357
,445
,378
,233
,351
,403
,375
,187
,439
,492
,208
,187
,576
,507
,186
,464
,851
,296
,186
,566
,751
,186
,187
,578
,625
,187
,187
,186
,860
,865
,865
,864
,865
,864
,865
,865
,865
,864
,865
,865
,865
,865
,863
,864
,864
,861
,859
,862
,861
,762
,659
,851
,855
,476
,640
,861
,616
,375
,776
,662
,503
,459
,675
,569
,353
,489
,717
,424
,270
,623
,562
,274
,427
,555
,509
,187
,424
,674
,333
,234
,487
,597
,254
,255
,610
,546
,227
,400
,556
,365
,209
,535
,538
,254
,295
,576
,465
,217
,407
,598
,385
,220
,514
,592
,299
,366
,597
,521
,261
,429
,617
,438
,277
,528
,631
,347
,412
,658
,554
,194
,442
,782
,494
,280
,601
,631
,326
,346
,693
,543
,429
,412
,629
,541
,386
,444
,710
,372
,455
,597
,643
,423
,445
,777
,536
,229
,575
,804
,444
,354
,668
,669
,422
,360
,723
,694
,284
,524
,740
,423
,322
,629
,756
,420
,486
,708
,571
,377
,655
,603
,472
,487
,581
,727
,339
,452
,806
,615
,305
,633
,735
,492
,381
,687
,655
,421
,462
,810
,600
,501
,501
,731
,473
,369
,591
,722
,502
,435
,720
,613
,328
,491
,759
,475
,365
,655
,721
,526
,306
,717
,672
,291
,493
,787
,543
,365
,664
,679
,342
,491
,657
,629
,512
,411
,683
,652
,321
,560
,757
,465
,504
,640
,601
,389
,545
,679
,590
,400
,532
,745
,488
,323
,667
,730
,251
,513
,717
,575
,366
,497
,645
,503
,313
,610
,757
,444
,366
,679
,557
,255
,586
,771
,392
,352
,651
,622
,349
,519
,707
,620
,406
,542
,719
,523
,385
,572
,682
,417
,501
,653
,627
,400
,469
,857
,560
,311
,655
,648
,354
,417
,758
,554
,451
,473
,672
,607
,290
,558
,809
,346
,395
,747
,605
,370
,531
,686
,549
,457
,527
,716
,414
,351
,700
,574
,390
,526
,801
,532
,296
,559
,806
,416
,399
,700
,633
,381
,484
,747
,534
,325
,586
,682
,461
,415
,743
,632
,395
,476
,631
,662
,314
,539
,718
,459
,368
,644
,597
,483
,419
,654
,702
,272
,553
,768
,427
,314
,707
,627
,352
,521
,635
,545
,311
,601
,656
,432
,444
,697
,669
,406
,451
,707
,521
,447
,451
,796
,484
,412
,640
,701
,471
,377
,617
,593
,407
,472
,770
,554
,357
,680
,684
,315
,467
,781
,549
,477
,472
,695
,575
,372
,549
,804
,428
,361
,698
,798
,219
,490
,853
,462
,356
,632
,753
,481
,375
,653
,756
,406
,454
,760
,654
,321
,549
,740
,480
,304
,635
,771
,346
,460
,755
,653
,294
,555
,778
,479
,334
,647
,715
,366
,426
,817
,615
,297
,539
,791
,482
,348
,660
,808
,397
,426
,729
,631
,275
,613
,762
,486
,300
,646
,689
,338
,377
,719
,585
,226
,457
,843
,410
,285
,662
,702
,409
,427
,593
,666
,352
,330
,766
,576
,186
,582
,766
,268
,353
,764
,652
,292
,434
,778
,481
,395
,525
,769
,366
,338
,775
,677
,290
,524
,731
,625
,289
,604
,856
,489
,345
,851
,682
,302
,506
,740
,646
,307
,599
,753
,427
,412
,580
,707
,452
,454
,662
,681
,209
,526
,848
,388
,281
,722
,728
,376
,384
,704
,616
,275
,603
,703
,605
,395
,602
,704
,429
,316
,848
,666
,292
,507
,800
,525
,420
,662
,765
,411
,427
,728
,610
,353
,493
,849
,420
,300
,758
,679
,362
,412
,619
,681
,395
,422
,756
,619
,206
,554
,818
,464
,272
,766
,632
,309
,523
,775
,583
,308
,580
,767
,414
,273
,701
,714
,339
,452
,768
,577
,228
,544
,824
,441
,300
,699
,725
,392
,415
,777
,590
,259
,620
,790
,462
,354
,599
,674
,432
,404
,738
,598
,288
,494
,783
,449
,362
,571
,743
,418
,245
,751
,701
,221
,507
,772
,435
,238
,639
,805
,310
,414
,813
,629
,288
,490
,826
,470
,405
,637
,729
,475
,394
,680
,733
,220
,456
,840
,488
,376
,536
,750
,512
,409
,657
,776
,326
,482
,775
,630
,297
,755
,661
,541
,354
,670
,693
,371
,345
,740
,631
,189
,586
,851
,366
,350
,817
,642
,312
,477
,635
,630
,408
,536
,718
,552
,356
,544
,699
,558
,277
,517
,651
,586
,397
,459
,564
,801
,543
,329
,508
,569
,624
,559
,326
,691
,602
,543
,482
,356
,629
,714
,400
,465
,577
,655
,559
,326
,465
,592
,601
,531
,481
,459
,611
,565
,418
,484
,488
,659
,621
,301
,534
,665
,574
,571
,336
,661
,588
,491
,461
,364
,658
,679
,477
,399
,541
,606
,655
,312
,500
,703
,551
,468
,487
,543
,717
,512
,410
,488
,643
,664
,536
,398
,529
,657
,491
,498
,446
,589
,645
,516
,415
,494
,653
,616
,450
,428
,582
,652
,599
,422
,423
,599
,621
,464
,415
,547
,654
,562
,420
,483
,552
,703
,520
,368
,470
,637
,541
,398
,442
,606
,670
,488
,497
,402
,691
,662
,376
,565
,471
,634
,590
,304
,514
,721
,626
,522
,458
,510
,743
,465
,384
,552
,656
,466
,506
,401
,518
,744
,429
,539
,494
,618
,622
,505
,390
,544
,664
,511
,541
,435
,571
,690
,379
,400
,554
,550
,621
,544
,553
,556
,663
,652
,335
,498
,702
,516
,458
,381
,590
,789
,471
,456
,455
,642
,585
,506
,387
,558
,645
,528
,455
,414
,622
,645
,429
,403
,562
,596
,572
,378
,509
,629
,522
,521
,436
,548
,660
,628
,408
,350
,665
,670
,630
,364
,534
,683
,606
,409
,564
,468
,699
,529
,317
,499
,753
,638
,408
,411
,522
,622
,558
,397
,565
,577
,637
,548
,379
,504
,786
,470
,425
,414
,625
,684
,513
,336
,489
,696
,575
,366
,432
,540
,711
,473
,380
,498
,653
,583
,542
,314
,592
,697
,508
,374
,531
,574
,589
,514
,263
,596
,740
,463
,494
,449
,604
,708
,455
,368
,576
,733
,564
,470
,398
,582
,696
,421
,543
,495
,630
,676
,416
,362
,632
,651
,503
,400
,457
,672
,561
,536
,430
,560
,747
,474
,407
,501
,637
,722
,368
,425
,603
,617
,642
,438
,456
,675
,620
,487
,400
,581
,620
,613
,317
,440
,708
,600
,515
,372
,528
,781
,470
,462
,371
,635
,756
,419
,449
,530
,698
,598
,368
,419
,643
,572
,556
,421
,466
,735
,577
,537
,363
,616
,614
,488
,369
,483
,626
,701
,431
,393
,662
,627
,589
,360
,395
,759
,559
,472
,481
,442
,724
,565
,422
,440
,595
,636
,568
,247
,551
,706
,594
,482
,321
,584
,707
,455
,424
,527
,648
,680
,447
,398
,639
,621
,505
,449
,471
,647
,643
,440
,380
,547
,681
,640
,402
,438
,629
,696
,642
,404
,563
,667
,604
,342
,471
,646
,655
,544
,358
,567
,681
,603
,426
,430
,593
,677
,510
,393
,502
,652
,614
,447
,414
,455
,589
,523
,449
,413
,615
,709
,422
,408
,581
,632
,652
,356
,405
,694
,519
,460
,379
,524
,768
,639
,343
,466
,676
,676
,482
,460
,468
,756
,500
,488
,439
,580
,663
,547
,340
,638
,592
,613
,481
,335
,604
,628
,547
,464
,387
,657
,733
,415
,432
,580
,642
,554
,365
,463
,720
,650
,482
,438
,483
,772
,482
,438
,521
,603
,716
,547
,335
,565
,647
,578
,524
,379
,550
,631
,541
,398
,537
,662
,594
,441
,387
,496
,667
,606
,344
,615
,650
,641
,463
,410
,555
,669
,568
,461
,392
,597
,662
,484
,386
,615
,633
,643
,324
,428
,635
,766
,389
,375
,561
,657
,725
,352
,405
,558
,644
,401
,425
,407
,633
,625
,380
,527
,475
,660
,520
,293
,465
,624
,556
,443
,471
,442
,596
,535
,472
,559
,501
,537
,538
,485
,510
,766
,572
,502
,551
,393
,588
,631
,236
,624
,644
,549
,631
,515
,456
,656
,308
,553
,707
,401
,461
,184
,183
,184
,639
,630
,641
,625
,636
,638
,626
,633
,616
,626
,608
,611
,604
,606
,601
,600
,588
,593
,570
,576
,585
,599
,591
,586
,590
,650
,732
,601
,195
,501
,556
,575
,584
,584
,581
,594
,594
,605
,609
,621
,625
,608
,594
,575
,545
,519
,508
,496
,503
,498
,495
,496
,494
,493
,489
,493
,486
,486
,479
,480
,475
,467
,460
,477
,485
,491
,488
,494
,507
,590
,638
,290
,230
,482
,500
,509
,513
,519
,531
,534
,541
,559
,562
,581
,574
,565
,552
,524
,497
,488
,476
,480
,478
,482
,475
,479
,480
,479
,487
,482
,487
,490
,480
,488
,473
,465
,503
,513
,512
,517
,517
,580
,651
,549
,187
,436
,520
,534
,547
,546
,551
,554
,555
,567
,576
,585
,592
,582
,575
,549
,520
,511
,484
,493
,486
,495
,490
,492
,494
,499
,498
,496
,501
,495
,495
,491
,481
,474
,500
,512
,513
,513
,517
,543
,614
,638
,266
,325
,511
,537
,550
,549
,550
,559
,563
,573
,580
,593
,597
,596
,588
,575
,547
,532
,516
,507
,510
,509
,514
,511
,508
,508
,512
,509
,511
,511
,512
,502
,502
,494
,490
,524
,529
,536
,534
,537
,568
,644
,703
,434
,239
,525
,557
,576
,580
,585
,584
,587
,597
,597
,603
,613
,617
,612
,600
,595
,570
,546
,527
,522
,513
,521
,514
,520
,515
,515
,519
,518
,522
,515
,517
,187
,187
,186
,187
,860
,862
,862
,862
,862
,862
,862
,863
,862
,862
,862
,862
,862
,862
,863
,862
,862
,862
,863
,863
,863
,863
,863
,863
,862
,863
,862
,862
,863
,862
,863
,863
,863
,862
,863
,862
,862
,862
,862
,863
,863
,863
,862
,863
,862
,863
,863
,862
,863
,863
,862
,862
,863
,863
,862
,862
,863
,862
,862
,862
,862
,862
,863
,862
,862
,863
,862
,863
,863
,863
,862
,862
,863
,862
,863
,862
,862
,862
,862
,863
,862
,863
,863
,862
,862
,863
,862
,862
,862
,863
,863
,862
,863
,863
,862
,862
,863
,862
,862
,862
,862
,862
,862
,862
,862
,863
,863
,862
,862
,862
,862
,862
,862
,862
,862
,862
,862
,862
,862
,862
,863
,862
,862
,862
,863
,863
,863
,862
,863
,863
,863
,862
,862
,862
,863
,863
,862
,862
,862
,862
,862
,862
,862
,862
,863
,862
,862
,862
,862
,862
,862
,863
,862
,862
,863
,862
,862
,863
,863
,863
,863
,863
,862
,862
,862
,862
,863
,862
,863
,862
,862
,862
,862
,862
,863
,863
,862
,863
,863
,863
,863
,863
,863
,862
,863
,863
,863
,863
,863
,863
,863
,862
,863
,862
,862
,863
,863
,862
,863
,862
,863
,863
,863
,863
,863
,863
,863
,863
,862
,863
,862
,862
,862
,862
,863
,863
,863
,862
,862
,863
,862
,862
,863
,863
,863
,862
,862
,862
,863
,863
,863
,863
,862
,863
,863
,862
,863
,863
,863
,863
,863
,862
,863
,863
,863
,862
,862
,863
,863
,863
,863
,862
,862
,863
,863
,862
,863
,862
,863
,863
,863
,863
,862
,863
,862
,863
,862
,863
,862
,863
,863
,862
,863
,863
,862
,863
,863
,862
,863
,862
,863
,862
,863
,862
,862
,863
,863
,863
,862
,863
,863
,863
,862
,863
,863
,863
,863
,862
,863
,863
,862
,862
,863
,863
,863
,863
,863
,863
,863
,863
,863
,863
,862
,862
,862
,863
,862
,863
,863
,862
,863
,863
,863
,863
,863
,862
,863
,863
,863
,863
,863
,863
,863
,863
,862
,863
,863
,862
,862
,863
,863
,862
,863
,863
,862
,862
,862
,863
,863
,862
,863
,863
,863
,862
,862
,862
,862
,863
,863
,863
,862
,863
,863
,863
,862
,862
,863
,863
,863
,863
,863
,863
,862
,863
,862
,863
,863
,863
,862
,863
,863
,862
,862
,863
,863
,863
,863
,863
,863
,862
,863
,863
,863
,863
,863
,863
,863
,863
,863
,863
,863
,863
,863
,863
,862
,863
,863
,863
,863
,863
,863
,863
,862
,863
,863
,862
,863
,863
,863
,863
,863
,862
,863
,862
,863
,863
,863
,863
,863
,862
,863
,863
,863
,863
,863
,862
,863
,863
,863
,863
,862
,863
,863
,863
,862
,863
,863
,863
,863
,863
,863
,863
,863
,863
,863
,863
,863
,187
,186
,186
,187
,187
,187
,187
,187
,186
,187
,187
,187
,187
,187
,187
,187
,187
,186
,187
,187
,187
,187
,187
,187
,186
,187
,187
,187
,187
,186
,186
,187
,187
,187
,186
,187
,188
,187
,187
,187
,187
,187
,187
,186
,187
,187
,187
,187
,187
,187
,186
,187
,187
,187
,187
,187
,187
,187
,186
,187
,187
,187
,187
,187
,187
,187
,187
,186
,187
,186
,188
,187
,187
,186
,187
,187
,187
,187
,187
,187
,187
,187
,188
,187
,188
,187
,187
,188
,187
,187
,187
,187
,187
,187
,187
,188
,187
,187
,187
,187
,187
,187
,187
,186
,187
,187
,187
,187
,188
,188
,187
,187
,187
,187
,187
,188
,186
,187
,187
,187
,188
,187
,187
,187
,188
,187
,187
,187
,187
,187
,187
,188
,187
,187
,187
,188
,187
,187
,187
,187
,187
,187
,188
,187
,187
,188
,187
,187
,187
,187
,187
,188
,188
,187
,188
,188
,187
,188
,188
,187
,187
,187
,187
,188
,187
,187
,187
,187
,188
,187
,187
,187
,187
,187
,188
,188
,188
,188
,188
,188
,188
,187
,188
,187
,188
,188
,188
,187
,187
,187
,188
,187
,188
,188
,187
,188
,188
,188
,188
,188
,187
,188
,187
,188
,188
,187
,188
,187
,187
,187
,187
,187
,187
,187
,187
,187
,188
,188
,187
,188
,187
,187
,187
,187
,187
,187
,188
,188
,188
,187
,187
,187
,188
,188
,188
,187
,188
,188
,187
,187
,188
,187
,188
,188
,188
,188
,187
,188
,187
,187
,188
,187
,187
,188
,187
,188
,188
,188
,188
,187
,187
,188
,187
,188
,188
,188
,187
,187
,188
,188
,187
,188
,188
,188
,187
,188
,188
,188
,187
,187
,188
,188
,188
,187
,187
,188
,187
,188
,188
,188
,187
,187
,187
,188
,187
,187
,188
,187
,187
,188
,187
,188
,188
,188
,187
,187
,188
,188
,188
,187
,187
,188
,187
,188
,188
,188
,188
,188
,188
,188
,187
,187
,188
,188
,187
,188
,188
,188
,188
,188
,188
,188
,188
,188
,187
,188
,188
,187
,187
,187
,187
,187
,187
,188
,188
,188
,188
,188
,187
,188
,188
,188
,187
,188
,188
,187
,188
,188
,188
,188
,187
,188
,188
,188
,188
,186
,188
,188
,188
,187
,188
,188
,187
,187
,188
,188
,188
,188
,187
,188
,188
,187
,187
,188
,188
,188
,188
,188
,188
,188
,188
,187
,187
,188
,187
,188
,188
,188
,187
,187
,188
,187
,188
,188
,188
,188
,188
,187
,187
,188
,188
,188
,188
,188
,188
,188
,188
,188
,188
,187
,188
,188
,187
,188
,187
,187
,188
,187
,188
,187
,187
,187
,188
,188
,188
,188
,188
,187
,188
,188
,188
,187
,188
,188
,188
,188
,188
,187
,188
,188
,188
,187
,188
,187
,187
,188
,188
,188
,187
,188
,188
,188
,188
,188
,187
,188
,188
,188
,188
,187
,188
,188
,188
,188
,188
,187
,188
,188
,187
,187
,187
,187
,187
,188
,188
,188
,188
,188
,188
,188
,187
,188
,187
,187
,187
,187
,187
,187
,187
,188
,187
,188
,187
,188
,188
,187
,188
,187
,188
,188
,188
,187
,187
,188
,187
,187
,187
,187
,188
,188
,187
,187
,188
,188
,188
,188
,188
,188
,187
,188
,188
,187
,188
,188
,187
,187
,188
,187
,188
,187
,188
,188
,188
,187
,187
,188
,187
,187
,188
,188
,188
,187
,187
,187
,188
,187
,187
,188
,188
,187
,188
,188
,187
,188
,187
,188
,188
,188
,187
,187
,188
,686
,864
,865
,865
,864
,864
,864
,864
,864
,865
,864
,864
,864
,865
,864
,864
,864
,864
,864
,864
,864
,864
,864
,864
,864
,864
,865
,864
,864
,865
,864
,864
,864
,864
,864
,864
,864
,864
,864
,864
,864
,864
,865
,864
,864
,864
,864
,864
,865
,864
,865
,865
,864
,864
,864
,864
,864
,864
,864
,865
,864
,864
,865
,864
,865
,865
,864
,864
,864
,864
,864
,864
,864
,865
,865
,864
,864
,864
,864
,864
,864
,864
,864
,864
,864
,864
,864
,864
,864
,864
,864
,864
,864
,865
,864
,865
,865
,864
,865
,864
,864
,864
,864
,865
,865
,864
,864
,864
,865
,864
,865
,864
,865
,864
,865
,864
,865
,864
,864
,865
,864
,865
,864
,864
,865
,865
,864
,864
,864
,864
,864
,864
,864
,863
,853
,577
,508
,403
,308
,215
,188
,187
,188
,187
,187
,187
,187
,187
,187
,188
,187
,187
,188
,187
,188
,187
,187
,187
,187
,188
,188
,187
,188
,187
,188
,188
,188
,188
,188
,188
,188
,187
,188
,188
,188
,187
,188
,188
,188
,188
,188
,188
,188
,188
,187
,188
,188
,188
,188
,187
,187
,188
,188
,187
,188
,187
,188
,187
,188
,188
,187
,187
,187
,188
,188
,188
,188
,187
,188
,188
,188
,188
,188
,232
,260
,282
,302
,327
,355
,380
,394
,416
,414
,414
,396
,384
,379
,384
,391
,400
,399
,420
,427
,432
,444
,461
,465
,472
,473
,485
,493
,496
,507
,520
,523
,534
,536
,539
,525
,525
,512
,486
,485
,433
,401
,359
,334
,305
,349
,384
,187
,187
,188
,191
,343
,339
,369
,390
,401
,425
,443
,464
,494
,508
,531
,528
,527
,502
,497
,470
,461
,476
,486
,480
,481
,485
,490
,476
,482
,482
,480
,475
,466
,436
,448
,431
,442
,434
,436
,415
,417
,398
,366
,364
,384
,370
,366
,354
,356
,371
,430
,454
,282
,187
,187
,196
,284
,251
,260
,245
,244
,251
,263
,286
,322
,345
,350
,347
,334
,316
,295
,298
,289
,290
,304
,303
,295
,272
,264
,272
,246
,251
,278
,367
,447
,499
,554
,640
,706
,790
,820
,825
,849
,839
,844
,803
,659
,417
,343
,190
,187
,186
,187
,186
,186
,186
,186
,187
,187
,187
,187
,187
,187
,225
,388
,340
,375
,439
,485
,550
,618
,638
,697
,701
,685
,648
,625
,489
,494
,485
,521
,565
,600
,554
,567
,539
,473
,446
,436
,413
,423
,396
,326
,316
,346
,396
,420
,469
,570
,626
,720
,789
,849
,860
,861
,861
,741
,855
,861
,862
,861
,861
,861
,861
,860
,853
,709
,712
,605
,467
,420
,342
,189
,187
,187
,186
,187
,186
,187
,187
,187
,187
,186
,187
,190
,187
,262
,338
,365
,386
,397
,382
,369
,243
,197
,187
,187
,187
,187
,317
,494
,632
,855
,861
,861
,575
,815
,860
,861
,862
,862
,862
,863
,863
,862
,863
,863
,862
,863
,863
,863
,862
,858
,693
,712
,720
,679
,712
,675
,653
,642
,610
,590
,521
,491
,558
,662
,539
,248
,196
,456
,584
,723
,828
,674
,625
,525
,241
,187
,187
,186
,186
,187
,186
,187
,187
,187
,186
,447
,525
,521
,370
,187
,187
,186
,187
,187
,186
,187
,186
,186
,187
,187
,186
,187
,249
,404
,477
,435
,187
,187
,471
,490
,574
,660
,718
,731
,791
,808
,856
,860
,862
,862
,863
,863
,863
,863
,863
,863
,863
,863
,863
,863
,863
,863
,863
,863
,863
,863
,863
,863
,863
,187
,187
,186
,187
,187
,186
,187
,187
,186
,186
,187
,187
,453
,863
,863
,863
,863
,863
,863
,863
,863
,863
,863
,863
,863
,863
,863
,863
,863
,863
,863
,863
,863
,725
,863
,863
,863
,861
,862
,308
,863
,187
,187
,187
,186
,186
,186
,187
,187
,187
,187
,186
,187
,187
,186
,186
,187
,187
,187
,186
,187
,187
,187
,187
,187
,188
,863
,863
,863
,863
,864
,864
,864
,864
,864
,863
,863
,864
,864
,863
,863
,864
,864
,863
,863
,864
,864
,864
,864
,863
,864
,863
,864
,863
,862
,854
,751
,618
,542
,441
,306
,190
,187
,187
,187
,186
,187
,187
,187
,187
,186
,187
,187
,188
,188
,187
,187
,187
,187
,187
,187
,187
,187
,186
,187
,187
,187
,187
,187
,187
,187
,187
,186
,187
,188
,188
,186
,187
,187
,187
,187
,187
,187
,187
,187
,187
,188
,187
,187
,187
,187
,188
,186
,187
,187
,415
,521
,588
,631
,659
,760
,838
,809
,566
,623
,784
,811
,847
,845
,844
,830
,830
,847
,857
,860
,860
,861
,859
,856
,843
,745
,654
,511
,187
,188
,187
,186
,187
,187
,188
,187
,187
,187
,187
,188
,187
,187
,187
,187
,186
,188
,187
,187
,187
,187
,188
,188
,187
,187
,187
,187
,188
,187
,187
,188
,187
,187
,187
,188
,187
,187
,187
,187
,187
,187
,188
,187
,272
,500
,672
,813
,847
,862
,863
,863
,864
,864
,864
,864
,864
,864
,864
,864
,864
,864
,864
,865
,864
,864
,864
,864
,864
,864
,864
,864
,864
,864
,864
,864
,864
,864
,864
,864
,864
,864
,864
,864
,864
,864
,864
,864
,864
,864
,864
,864
,864
,864
,864
,864
,864
,864
,864
,864
,864
,864
,864
,864
,864
,864
,864
,864
,864
,864
,864
,864
,864
,863
,864
,864
,864
,864
,864
,863
,863
,863
,862
,862
,863
,859
,825
,850
,813
,779
,859
,779
,740
,823
,828
,693
,776
,729
,670
,721
,691
,606
,697
,662
,581
,625
,694
,554
,599
,675
,492
,576
,623
,563
,524
,630
,540
,579
,586
,485
,510
,691
,418
,453
,546
,501
,509
,522
,489
,420
,674
,470
,476
,532
,573
,439
,526
,530
,455
,495
,519
,428
,477
,531
,432
,478
,528
,447
,473
,572
,460
,467
,546
,504
,452
,552
,467
,451
,550
,476
,440
,534
,496
,435
,536
,521
,438
,517
,526
,447
,525
,466
,466
,508
,554
,416
,498
,553
,503
,487
,553
,467
,429
,585
,476
,518
,576
,485
,486
,575
,517
,565
,496
,507
,491
,594
,536
,487
,572
,564
,482
,565
,562
,476
,525
,569
,519
,557
,583
,481
,544
,651
,430
,545
,593
,495
,513
,595
,514
,521
,530
,518
,539
,598
,493
,515
,568
,573
,470
,583
,573
,563
,550
,564
,504
,612
,523
,499
,531
,587
,466
,526
,565
,476
,536
,521
,487
,631
,492
,501
,536
,576
,496
,528
,582
,492
,523
,586
,512
,501
,594
,525
,511
,563
,529
,497
,622
,534
,488
,574
,601
,484
,574
,560
,557
,548
,575
,489
,586
,574
,490
,526
,574
,483
,544
,556
,599
,478
,577
,518
,496
,542
,511
,544
,592
,502
,504
,588
,531
,432
,582
,533
,490
,564
,554
,489
,565
,533
,489
,563
,615
,467
,600
,567
,496
,525
,575
,493
,562
,578
,496
,531
,582
,495
,518
,589
,500
,507
,583
,520
,496
,587
,530
,554
,510
,505
,509
,575
,486
,481
,553
,574
,483
,557
,519
,502
,556
,528
,490
,549
,577
,492
,507
,589
,538
,492
,602
,564
,518
,495
,573
,574
,490
,526
,591
,529
,491
,545
,593
,520
,494
,577
,577
,448
,520
,587
,550
,488
,503
,588
,527
,501
,567
,585
,500
,514
,560
,557
,485
,544
,661
,518
,493
,556
,547
,504
,508
,586
,538
,488
,539
,593
,496
,493
,563
,656
,482
,506
,585
,627
,478
,532
,598
,491
,461
,578
,582
,522
,503
,520
,653
,453
,525
,601
,527
,464
,568
,574
,451
,535
,576
,630
,482
,529
,594
,632
,426
,560
,604
,501
,458
,579
,570
,484
,503
,596
,552
,521
,532
,595
,517
,485
,572
,576
,494
,485
,595
,600
,501
,535
,561
,523
,546
,507
,539
,492
,556
,580
,560
,486
,612
,587
,521
,491
,579
,577
,506
,519
,675
,543
,491
,537
,585
,533
,483
,565
,564
,506
,548
,588
,567
,484
,533
,653
,521
,485
,566
,573
,502
,506
,630
,558
,493
,532
,580
,542
,488
,579
,587
,511
,502
,552
,614
,504
,511
,566
,538
,470
,561
,571
,534
,492
,523
,539
,485
,563
,543
,548
,490
,626
,576
,523
,490
,674
,480
,510
,520
,580
,548
,485
,547
,582
,520
,492
,575
,578
,491
,512
,560
,554
,492
,628
,584
,527
,491
,558
,585
,504
,510
,559
,560
,485
,541
,593
,527
,500
,518
,592
,531
,490
,641
,548
,571
,537
,583
,446
,521
,560
,558
,504
,505
,585
,513
,466
,532
,597
,564
,489
,562
,583
,500
,498
,581
,611
,486
,528
,602
,515
,442
,558
,591
,507
,501
,575
,565
,494
,518
,596
,544
,483
,557
,584
,510
,503
,576
,589
,493
,481
,583
,553
,486
,553
,573
,522
,500
,573
,575
,480
,491
,602
,505
,493
,544
,591
,522
,526
,610
,630
,498
,528
,600
,518
,495
,544
,584
,562
,494
,545
,592
,515
,515
,581
,568
,469
,601
,592
,506
,490
,611
,579
,492
,541
,606
,563
,487
,489
,598
,539
,483
,552
,587
,503
,543
,582
,568
,492
,519
,596
,544
,605
,534
,600
,513
,491
,618
,568
,460
,522
,572
,549
,482
,551
,596
,516
,495
,580
,565
,494
,520
,593
,543
,486
,547
,595
,520
,464
,580
,583
,499
,569
,588
,553
,491
,542
,598
,524
,493
,604
,582
,494
,516
,593
,520
,490
,544
,593
,537
,487
,626
,567
,541
,497
,578
,528
,457
,557
,567
,510
,496
,562
,595
,531
,479
,549
,623
,502
,519
,578
,541
,489
,549
,588
,515
,590
,577
,571
,492
,505
,598
,543
,503
,553
,594
,516
,488
,582
,579
,518
,520
,619
,546
,470
,551
,637
,524
,447
,589
,557
,515
,504
,627
,550
,477
,554
,599
,511
,499
,576
,598
,494
,515
,591
,529
,480
,552
,594
,553
,418
,594
,581
,499
,509
,592
,560
,477
,563
,591
,609
,384
,521
,578
,514
,503
,588
,563
,531
,467
,622
,528
,500
,576
,589
,525
,487
,610
,562
,528
,533
,584
,502
,462
,568
,588
,543
,500
,583
,572
,489
,522
,599
,583
,479
,555
,595
,614
,484
,573
,532
,491
,523
,598
,547
,438
,556
,600
,598
,489
,582
,579
,550
,471
,622
,558
,496
,550
,604
,526
,443
,562
,586
,507
,458
,601
,545
,587
,517
,623
,527
,459
,543
,587
,498
,489
,590
,561
,570
,516
,598
,532
,486
,568
,587
,498
,496
,587
,562
,505
,533
,595
,535
,477
,567
,593
,620
,499
,592
,566
,465
,537
,601
,555
,481
,562
,590
,496
,504
,590
,568
,463
,528
,597
,570
,422
,582
,597
,535
,413
,560
,558
,515
,532
,576
,545
,488
,504
,583
,531
,543
,575
,586
,489
,550
,597
,546
,515
,547
,599
,524
,456
,574
,587
,493
,509
,595
,554
,478
,545
,598
,523
,522
,567
,540
,482
,484
,592
,558
,476
,545
,601
,550
,493
,572
,586
,502
,511
,588
,601
,462
,544
,584
,491
,510
,558
,586
,434
,559
,583
,537
,442
,493
,600
,565
,418
,579
,590
,513
,471
,586
,572
,536
,519
,601
,544
,448
,560
,591
,505
,503
,580
,598
,528
,522
,550
,523
,481
,556
,595
,500
,504
,580
,575
,528
,