504
,507
,506
,508
,508
,508
,508
,508
,509
,509
,510
,512
,514
,518
,518
,521
,521
,519
,523
,524
,519
,519
,508
,507
,528
,538
,536
,538
,540
,562
,628
,654
,405
,338
,509
,544
,553
,559
,561
,568
,574
,580
,591
,605
,612
,615
,605
,591
,571
,546
,531
,521
,516
,517
,517
,518
,519
,516
,518
,516
,514
,514
,513
,511
,515
,510
,515
,516
,519
,520
,521
,520
,523
,516
,512
,505
,510
,523
,533
,531
,532
,534
,576
,635
,616
,308
,389
,515
,543
,552
,554
,561
,565
,571
,579
,592
,605
,614
,615
,608
,594
,566
,543
,529
,519
,518
,519
,523
,523
,526
,528
,528
,528
,527
,530
,528
,530
,529
,528
,531
,532
,529
,532
,533
,535
,536
,530
,532
,519
,521
,532
,544
,542
,541
,542
,561
,624
,670
,431
,316
,500
,535
,544
,549
,554
,763
,845
,854
,855
,856
,855
,855
,855
,854
,851
,790
,752
,724
,705
,689
,674
,659
,646
,634
,617
,608
,593
,581
,568
,556
,548
,538
,531
,522
,515
,506
,501
,495
,487
,477
,469
,455
,457
,467
,468
,466
,464
,460
,500
,559
,537
,216
,293
,429
,455
,460
,466
,468
,474
,483
,491
,501
,516
,527
,529
,517
,504
,477
,455
,441
,432
,433
,436
,440
,442
,445
,444
,452
,445
,451
,450
,455
,457
,459
,460
,457
,462
,465
,468
,472
,473
,472
,471
,463
,468
,488
,496
,497
,499
,503
,526
,594
,624
,360
,315
,480
,515
,521
,527
,539
,543
,545
,560
,560
,578
,585
,591
,581
,570
,546
,522
,508
,501
,500
,500
,504
,504
,508
,508
,510
,511
,511
,512
,512
,514
,516
,515
,518
,518
,521
,521
,514
,513
,507
,507
,524
,534
,529
,528
,532
,550
,619
,693
,478
,310
,501
,538
,544
,550
,553
,558
,564
,573
,582
,595
,606
,607
,601
,587
,564
,539
,524
,512
,510
,510
,515
,510
,514
,516
,517
,519
,518
,520
,522
,522
,522
,523
,526
,525
,527
,529
,524
,522
,513
,513
,530
,539
,541
,540
,545
,556
,616
,700
,543
,262
,496
,547
,558
,562
,568
,569
,579
,585
,594
,605
,615
,622
,617
,605
,584
,554
,536
,525
,517
,516
,519
,516
,519
,521
,522
,523
,522
,523
,523
,518
,521
,521
,520
,519
,521
,517
,512
,503
,504
,519
,531
,531
,529
,530
,542
,602
,659
,473
,270
,487
,534
,542
,546
,551
,556
,560
,567
,576
,590
,600
,606
,602
,588
,559
,535
,514
,505
,499
,499
,502
,503
,504
,507
,506
,508
,510
,509
,512
,511
,509
,512
,511
,513
,515
,514
,510
,505
,497
,500
,518
,529
,528
,529
,531
,551
,611
,642
,422
,317
,500
,539
,546
,552
,556
,561
,566
,573
,583
,596
,609
,615
,606
,597
,568
,542
,525
,512
,510
,511
,511
,512
,515
,515
,515
,515
,517
,516
,516
,517
,517
,518
,517
,519
,520
,523
,522
,522
,523
,518
,518
,504
,505
,518
,532
,533
,531
,534
,537
,592
,660
,539
,238
,459
,527
,542
,548
,553
,557
,562
,568
,579
,586
,601
,612
,610
,600
,579
,553
,531
,516
,510
,510
,510
,513
,509
,514
,512
,512
,515
,515
,514
,516
,513
,516
,516
,517
,515
,517
,517
,518
,518
,519
,519
,519
,521
,514
,513
,502
,502
,522
,531
,527
,535
,536
,540
,604
,656
,481
,256
,476
,525
,537
,544
,546
,545
,550
,553
,557
,569
,581
,588
,582
,567
,559
,530
,519
,497
,494
,493
,497
,502
,504
,509
,506
,506
,506
,508
,505
,505
,504
,507
,506
,509
,509
,509
,515
,519
,518
,517
,509
,503
,510
,515
,512
,513
,508
,512
,558
,665
,704
,286
,411
,504
,529
,538
,542
,546
,552
,555
,564
,573
,589
,599
,600
,591
,586
,565
,549
,535
,531
,531
,530
,533
,532
,532
,534
,534
,535
,528
,531
,526
,523
,522
,517
,510
,501
,496
,512
,522
,519
,517
,518
,528
,593
,685
,531
,228
,463
,511
,519
,522
,529
,530
,535
,545
,555
,565
,580
,587
,580
,568
,540
,516
,500
,494
,491
,490
,495
,499
,503
,507
,508
,514
,516
,516
,519
,523
,520
,525
,513
,513
,539
,551
,552
,556
,560
,570
,640
,715
,528
,289
,522
,569
,578
,584
,589
,594
,600
,607
,618
,627
,640
,646
,641
,628
,601
,572
,550
,544
,538
,537
,538
,537
,537
,536
,537
,534
,533
,536
,529
,532
,531
,526
,526
,512
,509
,521
,537
,534
,535
,532
,535
,591
,671
,587
,238
,439
,523
,538
,542
,545
,550
,554
,559
,567
,578
,591
,599
,595
,588
,567
,538
,514
,500
,494
,494
,494
,493
,498
,499
,498
,498
,500
,499
,499
,500
,501
,502
,503
,505
,505
,499
,502
,488
,488
,504
,518
,521
,521
,523
,525
,587
,663
,510
,215
,462
,518
,530
,536
,541
,547
,550
,559
,566
,576
,590
,599
,592
,583
,563
,536
,516
,503
,500
,495
,498
,498
,501
,498
,502
,503
,501
,504
,504
,505
,505
,506
,507
,512
,507
,510
,509
,507
,495
,496
,501
,519
,522
,522
,527
,528
,575
,642
,579
,271
,408
,513
,538
,542
,549
,554
,557
,564
,569
,583
,593
,606
,604
,592
,578
,550
,528
,510
,504
,503
,502
,505
,507
,507
,508
,512
,511
,511
,513
,511
,514
,513
,512
,514
,515
,515
,510
,506
,498
,504
,519
,527
,529
,528
,530
,557
,621
,642
,387
,336
,504
,539
,545
,551
,553
,561
,565
,573
,583
,597
,608
,609
,605
,587
,562
,538
,518
,512
,507
,508
,512
,510
,511
,510
,512
,512
,512
,513
,512
,514
,514
,514
,514
,514
,517
,514
,519
,519
,519
,521
,518
,516
,513
,506
,513
,531
,530
,532
,531
,532
,569
,630
,617
,354
,377
,512
,540
,544
,551
,552
,559
,564
,570
,581
,591
,605
,609
,601
,586
,561
,535
,518
,509
,507
,506
,506
,507
,507
,509
,508
,509
,509
,509
,512
,511
,512
,514
,513
,514
,514
,517
,517
,517
,520
,519
,521
,519
,514
,508
,509
,531
,528
,529
,527
,529
,558
,619
,636
,399
,346
,504
,535
,543
,551
,553
,560
,565
,574
,580
,596
,607
,614
,606
,589
,567
,538
,521
,511
,508
,506
,508
,508
,509
,510
,512
,511
,513
,514
,514
,513
,515
,512
,514
,516
,515
,515
,516
,519
,519
,521
,522
,520
,520
,520
,527
,516
,514
,513
,531
,527
,530
,531
,532
,574
,635
,598
,322
,400
,514
,538
,545
,551
,555
,559
,567
,571
,584
,596
,611
,611
,603
,587
,561
,538
,517
,510
,509
,508
,511
,511
,510
,513
,512
,513
,514
,514
,515
,513
,514
,512
,514
,516
,517
,517
,519
,517
,520
,520
,520
,521
,524
,523
,522
,526
,516
,515
,511
,535
,529
,530
,529
,531
,566
,626
,622
,380
,372
,506
,538
,542
,547
,553
,554
,563
,572
,579
,595
,606
,612
,604
,592
,565
,539
,521
,513
,509
,507
,508
,510
,509
,512
,513
,515
,510
,511
,512
,513
,515
,514
,516
,515
,515
,517
,512
,514
,514
,514
,511
,514
,512
,515
,515
,504
,505
,496
,513
,523
,521
,515
,518
,520
,589
,646
,492
,219
,457
,526
,534
,542
,546
,556
,558
,571
,580
,588
,604
,612
,618
,606
,582
,553
,530
,512
,515
,506
,509
,511
,506
,506
,507
,506
,510
,507
,508
,507
,507
,511
,510
,509
,509
,511
,515
,514
,515
,519
,517
,518
,513
,524
,513
,518
,513
,525
,532
,532
,528
,532
,529
,578
,647
,598
,290
,412
,513
,540
,544
,549
,555
,558
,563
,572
,580
,597
,609
,615
,603
,589
,560
,534
,521
,515
,510
,508
,509
,512
,510
,511
,509
,510
,511
,510
,511
,512
,509
,507
,507
,503
,507
,509
,511
,512
,515
,513
,512
,509
,514
,526
,526
,527
,524
,528
,551
,626
,699
,468
,326
,500
,531
,537
,540
,546
,553
,557
,565
,576
,590
,597
,604
,596
,583
,561
,541
,523
,516
,514
,512
,511
,519
,517
,520
,527
,530
,516
,525
,523
,525
,525
,520
,522
,511
,507
,520
,537
,534
,537
,538
,536
,594
,659
,600
,243
,438
,514
,545
,552
,551
,552
,560
,562
,572
,583
,601
,605
,608
,591
,565
,533
,509
,499
,494
,496
,492
,496
,497
,498
,505
,501
,504
,502
,503
,501
,502
,494
,500
,495
,500
,490
,487
,473
,480
,502
,508
,504
,514
,511
,558
,619
,605
,310
,374
,513
,535
,548
,555
,557
,563
,563
,564
,577
,584
,458
,313
,294
,269
,247
,214
,210
,208
,221
,229
,244
,257
,283
,295
,310
,325
,339
,351
,362
,378
,387
,405
,415
,426
,439
,442
,456
,466
,468
,470
,472
,485
,511
,520
,530
,534
,540
,565
,646
,691
,423
,372
,530
,569
,578
,585
,597
,598
,606
,617
,620
,641
,648
,657
,652
,643
,625
,604
,589
,579
,579
,572
,577
,574
,572
,573
,568
,575
,576
,574
,574
,574
,571
,578
,569
,566
,568
,565
,570
,561
,556
,546
,544
,543
,558
,560
,556
,555
,550
,571
,638
,683
,444
,853
,854
,854
,854
,854
,854
,634
,849
,581
,521
,632
,854
,854
,854
,854
,853
,851
,830
,777
,756
,736
,711
,697
,680
,665
,645
,633
,617
,599
,588
,569
,555
,546
,539
,532
,513
,508
,495
,478
,469
,443
,435
,434
,449
,438
,439
,438
,434
,483
,578
,526
,182
,302
,408
,422
,430
,433
,436
,441
,446
,455
,467
,482
,489
,490
,483
,469
,447
,428
,416
,411
,409
,414
,417
,420
,424
,430
,433
,438
,436
,441
,444
,446
,450
,454
,452
,451
,443
,444
,460
,477
,478
,481
,484
,488
,550
,638
,547
,192
,418
,486
,504
,513
,518
,523
,531
,539
,546
,565
,577
,590
,584
,577
,552
,530
,510
,500
,497
,499
,501
,504
,506
,514
,515
,521
,522
,523
,522
,525
,526
,527
,528
,530
,530
,531
,530
,528
,516
,520
,529
,546
,546
,545
,542
,550
,596
,665
,606
,298
,453
,537
,564
,568
,572
,577
,585
,590
,600
,612
,627
,641
,645
,643
,624
,600
,578
,493
,244
,527
,582
,310
,254
,236
,655
,479
,256
,256
,248
,348
,718
,659
,654
,650
,646
,639
,621
,614
,607
,611
,624
,617
,613
,607
,610
,659
,706
,561
,319
,525
,573
,577
,580
,579
,578
,579
,583
,585
,597
,606
,611
,607
,593
,566
,536
,517
,508
,503
,501
,498
,497
,498
,499
,501
,502
,504
,501
,501
,501
,497
,501
,502
,500
,500
,495
,493
,478
,477
,491
,510
,510
,511
,512
,513
,556
,602
,537
,289
,392
,498
,523
,531
,533
,536
,541
,546
,555
,563
,579
,588
,591
,583
,567
,540
,518
,502
,495
,496
,494
,495
,496
,496
,498
,498
,500
,499
,501
,501
,501
,501
,503
,508
,505
,506
,507
,506
,509
,506
,503
,495
,487
,493
,509
,518
,519
,521
,519
,534
,582
,625
,448
,265
,474
,531
,536
,543
,547
,548
,555
,559
,569
,577
,593
,600
,601
,589
,565
,539
,523
,509
,506
,508
,504
,506
,505
,507
,505
,507
,506
,508
,509
,509
,513
,510
,510
,514
,512
,515
,513
,514
,517
,516
,517
,518
,518
,519
,521
,514
,512
,505
,504
,530
,529
,528
,530
,532
,551
,601
,613
,420
,334
,498
,538
,543
,550
,553
,558
,560
,569
,574
,589
,599
,608
,604
,592
,568
,541
,522
,512
,510
,507
,510
,512
,511
,511
,511
,511
,510
,515
,513
,513
,514
,517
,515
,516
,518
,515
,517
,519
,520
,520
,518
,520
,522
,519
,522
,523
,523
,521
,516
,509
,509
,533
,528
,530
,531
,532
,549
,599
,621
,435
,320
,495
,538
,545
,552
,553
,557
,562
,571
,575
,591
,603
,611
,610
,596
,571
,544
,526
,515
,511
,513
,509
,512
,511
,512
,512
,514
,513
,513
,516
,515
,516
,517
,517
,518
,518
,517
,518
,519
,520
,520
,523
,520
,524
,522
,523
,522
,524
,525
,518
,516
,510
,527
,531
,529
,530
,528
,530
,581
,629
,530
,269
,439
,517
,538
,546
,547
,552
,554
,560
,568
,579
,590
,604
,606
,599
,578
,552
,524
,512
,503
,504
,503
,502
,502
,507
,505
,505
,506
,508
,509
,507
,509
,510
,510
,509
,512
,511
,512
,515
,513
,515
,517
,517
,517
,519
,519
,517
,514
,514
,510
,519
,530
,525
,528
,525
,526
,563
,610
,576
,343
,382
,502
,535
,540
,545
,550
,553
,559
,566
,576
,589
,601
,609
,597
,586
,556
,529
,513
,505
,506
,504
,504
,505
,505
,505
,507
,508
,509
,509
,511
,513
,510
,514
,513
,511
,515
,516
,516
,517
,516
,519
,518
,520
,521
,516
,514
,513
,521
,530
,528
,528
,530
,528
,568
,617
,575
,323
,388
,507
,537
,543
,549
,553
,555
,560
,569
,579
,593
,607
,611
,600
,587
,557
,530
,514
,505
,505
,503
,503
,507
,507
,505
,509
,506
,509
,507
,506
,510
,509
,511
,509
,512
,509
,513
,511
,512
,514
,514
,515
,513
,510
,508
,506
,519
,527
,520
,526
,523
,524
,576
,626
,541
,260
,422
,511
,535
,541
,546
,548
,553
,559
,568
,578
,592
,606
,607
,600
,581
,549
,526
,512
,503
,505
,504
,502
,504
,504
,505
,506
,508
,509
,507
,512
,511
,512
,510
,510
,512
,515
,515
,517
,515
,517
,517
,520
,521
,520
,513
,513
,509
,524
,530
,528
,526
,527
,530
,583
,639
,528
,249
,439
,520
,538
,543
,550
,551
,554
,562
,570
,580
,596
,609
,607
,602
,580
,551
,525
,514
,507
,506
,505
,506
,503
,508
,508
,508
,510
,510
,511
,510
,511
,512
,512
,513
,513
,515
,514
,516
,517
,515
,520
,520
,520
,521
,518
,513
,513
,524
,531
,528
,529
,530
,530
,565
,617
,587
,348
,382
,508
,537
,544
,551
,553
,555
,563
,568
,580
,591
,607
,612
,606
,587
,560
,534
,516
,511
,505
,505
,506
,505
,507
,508
,505
,509
,509
,511
,513
,511
,511
,512
,512
,512
,515
,515
,516
,516
,517
,515
,520
,519
,519
,520
,518
,510
,514
,512
,527
,527
,526
,528
,527
,531
,593
,648
,485
,252
,471
,528
,536
,547
,549
,553
,557
,565
,573
,586
,599
,612
,611
,598
,576
,549
,525
,513
,508
,506
,507
,507
,509
,506
,510
,510
,510
,512
,510
,511
,512
,513
,514
,513
,512
,515
,516
,517
,518
,519
,518
,518
,519
,522
,522
,522
,521
,516
,514
,515
,524
,531
,527
,527
,528
,531
,580
,635
,542
,265
,433
,517
,535
,546
,549
,550
,556
,562
,568
,578
,594
,607
,610
,603
,583
,555
,530
,514
,508
,508
,506
,505
,505
,506
,508
,505
,510
,508
,509
,509
,512
,508
,512
,511
,512
,512
,511
,515
,513
,513
,514
,517
,516
,518
,518
,518
,516
,513
,512
,509
,520
,529
,524
,524
,524
,525
,569
,615
,568
,314
,397
,505
,532
,539
,544
,546
,551
,558
,563
,575
,588
,600
,608
,602
,586
,558
,529
,513
,505
,503
,503
,504
,505
,503
,507
,504
,508
,505
,509
,508
,508
,510
,511
,512
,510
,511
,512
,509
,514
,512
,515
,515
,517
,518
,517
,517
,520
,518
,511
,512
,510
,523
,528
,524
,526
,523
,527
,578
,629
,547
,273
,423
,512
,535
,541
,544
,551
,552
,560
,567
,577
,591
,604
,608
,602
,584
,554
,530
,513
,507
,504
,504
,504
,506
,505
,507
,506
,508
,510
,511
,509
,512
,514
,511
,512
,514
,513
,514
,517
,517
,517
,521
,521
,518
,521
,520
,521
,516
,514
,518
,522
,533
,528
,529
,530
,530
,563
,611
,597
,371
,368
,501
,536
,543
,547
,550
,557
,559
,567
,578
,591
,606
,613
,609
,592
,565
,536
,519
,507
,506
,506
,503
,507
,507
,506
,509
,509
,509
,511
,511
,512
,512
,514
,515
,515
,516
,514
,517
,519
,518
,518
,518
,519
,522
,520
,521
,517
,512
,512
,519
,531
,526
,528
,526
,528
,562
,609
,593
,361
,367
,504
,534
,541
,544
,548
,551
,560
,564
,577
,587
,598
,610
,605
,589
,563
,539
,509
,502
,496
,493
,486
,488
,484
,483
,482
,483
,484
,485
,489
,490
,492
,495
,498
,496
,496
,495
,498
,499
,501
,501
,503
,504
,508
,509
,511
,509
,507
,508
,507
,520
,518
,515
,514
,514
,518
,575
,625
,486
,216
,429
,510
,521
,529
,531
,540
,539
,549
,554
,569
,584
,598
,604
,601
,586
,552
,527
,509
,510
,506
,508
,509
,510
,514
,520
,518
,520
,531
,525
,503
,536
,537
,539
,540
,543
,271
,254
,239
,243
,249
,256
,265
,269
,280
,294
,298
,318
,325
,358
,361
,372
,375
,393
,429
,512
,601
,378
,270
,453
,494
,507
,544
,849
,850
,850
,851
,850
,851
,851
,850
,850
,849
,848
,828
,770
,747
,729
,705
,701
,681
,671
,667
,649
,641
,631
,626
,614
,605
,595
,593
,586
,569
,567
,556
,563
,550
,537
,529
,524
,532
,524
,519
,502
,509
,430
,216
,299
,388
,180
,181
,180
,180
,181
,186
,217
,222
,248
,264
,291
,330
,337
,356
,340
,360
,329
,346
,325
,347
,380
,393
,407
,445
,459
,473
,467
,477
,477
,484
,486
,471
,476
,472
,602
,606
,428
,484
,522
,530
,839
,852
,853
,853
,853
,853
,851
,850
,850
,849
,848
,845
,822
,803
,784
,769
,753
,742
,721
,674
,640
,574
,538
,485
,410
,352
,371
,370
,369
,369
,372
,373
,386
,378
,389
,396
,398
,408
,426
,415
,429
,422
,558
,655
,773
,524
,376
,510
,531
,550
,563
,545
,571
,600
,622
,635
,652
,676
,688
,658
,657
,621
,585
,580
,559
,550
,547
,516
,523
,507
,497
,491
,485
,428
,427
,428
,435
,436
,434
,383
,319
,322
,406
,553
,247
,216
,384
,413
,422
,430
,448
,446
,455
,455
,476
,484
,496
,494
,486
,478
,454
,434
,425
,428
,431
,441
,441
,444
,437
,441
,451
,444
,433
,451
,470
,485
,491
,486
,486
,489
,287
,336
,627
,209
,454
,505
,535
,540
,540
,529
,537
,546
,570
,584
,595
,608
,609
,607
,590
,550
,543
,530
,529
,530
,531
,525
,542
,541
,538
,525
,512
,524
,530
,543
,536
,544
,540
,563
,613
,665
,513
,342
,507
,536
,539
,542
,541
,550
,556
,559
,566
,580
,589
,589
,583
,568
,546
,524
,510
,505
,503
,505
,506
,504
,504
,502
,503
,500
,504
,487
,480
,494
,509
,515
,517
,521
,516
,562
,652
,617
,303
,418
,503
,526
,529
,535
,536
,545
,549
,554
,566
,580
,594
,589
,587
,569
,543
,524
,512
,508
,506
,506
,507
,506
,504
,513
,510
,503
,501
,500
,505
,503
,501
,497
,494
,485
,486
,494
,511
,518
,514
,516
,513
,555
,631
,585
,272
,400
,493
,504
,516
,516
,523
,524
,530
,539
,547
,556
,567
,570
,569
,560
,534
,511
,489
,486
,485
,489
,484
,479
,473
,479
,481
,482
,484
,489
,497
,496
,499
,501
,504
,508
,510
,515
,520
,523
,525
,526
,527
,530
,527
,533
,537
,539
,541
,542
,542
,544
,546
,546
,547
,546
,539
,542
,545
,552
,548
,548
,552
,546
,600
,673
,603
,323
,454
,533
,549
,553
,563
,559
,578
,576
,583
,587
,596
,608
,609
,607
,597
,576
,552
,529
,521
,516
,517
,510
,509
,504
,502
,501
,501
,499
,503
,501
,502
,502
,503
,506
,506
,509
,508
,507
,507
,510
,510
,511
,512
,509
,510
,513
,513
,511
,512
,515
,510
,512
,505
,517
,521
,518
,517
,519
,532
,599
,667
,546
,274
,480
,518
,527
,532
,536
,540
,544
,548
,555
,568
,578
,586
,586
,578
,560
,535
,515
,501
,496
,494
,492
,489
,488
,485
,486
,489
,490
,490
,491
,494
,494
,493
,496
,494
,495
,494
,496
,496
,499
,496
,499
,501
,500
,502
,502
,497
,500
,502
,497
,503
,502
,518
,513
,515
,518
,522
,569
,624
,593
,336
,389
,503
,530
,538
,544
,550
,556
,561
,568
,576
,590
,604
,610
,608
,592
,566
,543
,523
,517
,512
,512
,513
,511
,514
,513
,515
,515
,516
,517
,514
,517
,515
,516
,516
,515
,513
,511
,510
,519
,517
,512
,516
,514
,509
,505
,501
,510
,523
,520
,521
,521
,521
,561
,625
,596
,331
,380
,499
,519
,529
,535
,537
,542
,545
,550
,560
,574
,588
,589
,586
,570
,542
,517
,498
,490
,486
,488
,486
,490
,487
,490
,490
,495
,492
,495
,496
,495
,184
,181
,180
,181
,182
,181
,184
,198
,202
,217
,225
,250
,288
,346
,331
,363
,364
,374
,460
,543
,388
,181
,405
,463
,486
,514
,529
,543
,557
,566
,613
,641
,661
,672
,670
,661
,645
,611
,597
,581
,577
,577
,577
,578
,574
,576
,578
,577
,580
,569
,572
,569
,564
,567
,567
,563
,561
,559
,554
,549
,543
,552
,562
,568
,566
,567
,568
,629
,710
,628
,272
,476
,549
,568
,574
,578
,579
,583
,589
,594
,610
,620
,636
,634
,623
,605
,578
,557
,545
,540
,537
,537
,539
,535
,540
,542
,539
,542
,535
,533
,529
,527
,526
,536
,528
,524
,510
,507
,514
,531
,525
,526
,529
,530
,595
,685
,592
,202
,443
,508
,519
,531
,494
,495
,503
,504
,513
,525
,541
,549
,539
,517
,489
,464
,445
,432
,430
,434
,438
,459
,475
,490
,505
,506
,511
,521
,567
,599
,841
,851
,851
,851
,851
,850
,850
,849
,847
,850
,852
,853
,853
,852
,499
,688
,734
,788
,839
,807
,803
,793
,782
,771
,767
,762
,746
,743
,715
,674
,642
,590
,567
,552
,543
,531
,524
,528
,520
,514
,504
,498
,488
,480
,463
,447
,448
,460
,459
,458
,456
,451
,487
,556
,561
,241
,268
,419
,447
,457
,459
,467
,474
,478
,488
,496
,507
,518
,522
,511
,497
,472
,451
,437
,430
,429
,432
,437
,438
,445
,445
,452
,450
,446
,448
,431
,430
,451
,463
,466
,469
,470
,475
,531
,596
,503
,186
,401
,467
,486
,492
,496
,501
,506
,510
,519
,530
,543
,550
,547
,535
,514
,487
,471
,459
,455
,455
,457
,462
,466
,465
,465
,467
,464
,466
,464
,463
,452
,450
,471
,485
,486
,489
,491
,504
,565
,625
,459
,232
,460
,506
,514
,522
,527
,534
,539
,548
,558
,570
,582
,587
,583
,570
,550
,524
,508
,498
,499
,497
,500
,505
,505
,506
,506
,507
,506
,507
,507
,510
,505
,501
,488
,491
,510
,522
,521
,525
,522
,537
,595
,653
,477
,280
,488
,530
,535
,540
,545
,544
,552
,556
,564
,574
,584
,586
,582
,569
,547
,521
,501
,489
,486
,486
,489
,486
,487
,488
,486
,487
,486
,486
,485
,485
,485
,484
,486
,487
,487
,489
,487
,488
,485
,480
,472
,475
,496
,503
,504
,505
,509
,534
,588
,601
,386
,323
,483
,512
,520
,525
,529
,533
,537
,545
,552
,567
,576
,582
,576
,565
,545
,518
,504
,491
,488
,492
,490
,496
,498
,496
,497
,497
,500
,499
,497
,499
,499
,500
,503
,502
,503
,505
,508
,506
,507
,506
,509
,508
,511
,511
,502
,499
,501
,523
,521
,522
,522
,521
,560
,611
,588
,359
,376
,506
,533
,541
,545
,552
,552
,559
,565
,574
,589
,600
,604
,599
,586
,565
,540
,523
,511
,509
,507
,510
,511
,516
,514
,512
,515
,517
,517
,517
,518
,519
,518
,519
,520
,523
,521
,522
,524
,523
,525
,527
,526
,526
,529
,528
,531
,526
,520
,516
,529
,541
,537
,537
,538
,544
,601
,653
,514
,260
,482
,539
,549
,555
,561
,563
,568
,573
,578
,589
,600
,612
,609
,600
,582
,554
,533
,520
,512
,512
,511
,513
,513
,514
,513
,516
,516
,517
,518
,518
,516
,516
,517
,518
,519
,521
,523
,522
,523
,525
,526
,526
,525
,526
,526
,528
,527
,530
,531
,521
,519
,519
,537
,536
,535
,536
,538
,555
,611
,631
,454
,325
,505
,542
,550
,556
,560
,562
,572
,576
,586
,594
,607
,617
,612
,599
,576
,549
,530
,518
,513
,512
,513
,514
,517
,514
,517
,516
,518
,516
,519
,518
,520
,518
,520
,518
,520
,518
,521
,520
,520
,521
,520
,522
,523
,524
,524
,525
,520
,517
,517
,524
,535
,529
,531
,532
,534
,588
,647
,548
,251
,446
,522
,539
,547
,551
,555
,562
,567
,574
,584
,596
,611
,611
,604
,583
,557
,535
,520
,511
,509
,512
,511
,515
,514
,515
,515
,516
,515
,516
,516
,518
,517
,516
,517
,518
,518
,520
,521
,521
,522
,521
,521
,523
,523
,524
,524
,523
,516
,519
,515
,530
,526
,526
,527
,526
,543
,597
,646
,472
,294
,484
,523
,532
,536
,541
,542
,547
,553
,561
,574
,589
,598
,595
,582
,557
,528
,506
,495
,487
,487
,489
,489
,489
,492
,493
,491
,492
,492
,492
,492
,493
,491
,493
,493
,494
,495
,498
,497
,498
,501
,499
,501
,503
,504
,502
,501
,501
,508
,516
,512
,515
,513
,519
,569
,642
,548
,237
,430
,507
,529
,540
,547
,551
,559
,566
,575
,586
,600
,614
,619
,608
,591
,560
,537
,523
,515
,514
,511
,513
,513
,514
,515
,514
,513
,512
,513
,510
,513
,511
,513
,510
,511
,510
,511
,512
,511
,511
,511
,510
,513
,510
,505
,507
,513
,523
,516
,517
,519
,516
,565
,633
,591
,295
,397
,499
,521
,528
,531
,536
,543
,550
,557
,567
,584
,598
,604
,597
,577
,551
,523
,505
,499
,496
,493
,496
,499
,498
,502
,502
,503
,503
,503
,506
,504
,509
,509
,512
,515
,514
,517
,516
,519
,520
,520
,523
,526
,524
,519
,522
,524
,535
,534
,533
,534
,534
,563
,627
,646
,423
,353
,506
,539
,544
,551
,554
,560
,566
,574
,588
,601
,615
,625
,622
,605
,579
,549
,529
,520
,517
,515
,515
,518
,519
,521
,519
,521
,521
,521
,523
,524
,523
,523
,523
,522
,524
,525
,527
,527
,529
,528
,530
,528
,530
,529
,530
,525
,530
,527
,541
,539
,537
,538
,538
,555
,614
,680
,534
,306
,501
,536
,549
,551
,557
,566
,564
,576
,584
,595
,610
,619
,620
,605
,585
,554
,537
,522
,517
,515
,513
,514
,516
,519
,518
,521
,518
,520
,517
,521
,517
,516
,518
,520
,520
,513
,516
,513
,515
,517
,513
,510
,515
,507
,504
,499
,511
,513
,508
,509
,505
,505
,551
,606
,547
,274
,386
,480
,508
,512
,515
,520
,525
,530
,538
,549
,563
,580
,587
,584
,566
,538
,514
,500
,494
,493
,496
,494
,499
,503
,503
,508
,510
,513
,513
,518
,517
,521
,521
,524
,525
,525
,525
,522
,526
,523
,525
,524
,530
,531
,532
,533
,528
,528
,523
,537
,542
,539
,540
,539
,543
,587
,644
,567
,300
,420
,517
,539
,548
,551
,555
,557
,563
,571
,583
,596
,612
,617
,614
,597
,567
,538
,526
,513
,512
,511
,510
,511
,509
,511
,511
,514
,513
,515
,517
,516
,519
,521
,520
,524
,522
,526
,523
,521
,518
,515
,515
,511
,513
,513
,514
,513
,515
,507
,514
,512
,529
,524
,520
,525
,522
,530
,596
,659
,524
,248
,476
,527
,538
,545
,550
,553
,561
,565
,571
,587
,598
,613
,616
,609
,590
,560
,532
,520
,514
,508
,505
,502
,501
,500
,501
,503
,505
,506
,508
,508
,506
,504
,509
,508
,510
,511
,513
,509
,514
,512
,516
,516
,517
,519
,519
,520
,520
,525
,521
,515
,522
,518
,533
,532
,532
,531
,532
,536
,594
,673
,566
,249
,474
,528
,541
,546
,551
,554
,560
,566
,575
,588
,605
,618
,622
,614
,595
,563
,538
,520
,515
,515
,514
,513
,513
,514
,519
,520
,522
,527
,526
,530
,531
,534
,537
,533
,537
,535
,541
,543
,549
,552
,554
,554
,552
,550
,549
,550
,547
,542
,548
,544
,558
,551
,554
,555
,554
,557
,613
,676
,573
,275
,490
,538
,549
,557
,551
,427
,448
,453
,464
,479
,497
,510
,518
,537
,645
,593
,571
,557
,544
,542
,536
,533
,533
,526
,528
,526
,526
,527
,524
,524
,521
,517
,516
,517
,512
,514
,515
,512
,512
,510
,511
,509
,509
,500
,506
,501
,513
,514
,510
,512
,515
,520
,579
,622
,467
,234
,461
,513
,519
,529
,530
,534
,538
,544
,552
,565
,580
,593
,596
,585
,563
,531
,509
,495
,488
,488
,486
,487
,486
,487
,490
,491
,490
,490
,493
,490
,491
,491
,492
,491
,492
,489
,489
,491
,489
,486
,487
,485
,483
,476
,481
,479
,493
,491
,490
,490
,489
,498
,556
,605
,446
,215
,442
,493
,502
,513
,514
,516
,525
,528
,538
,550
,562
,576
,578
,568
,546
,518
,490
,479
,474
,473
,474
,474
,476
,479
,480
,482
,481
,483
,485
,486
,488
,489
,489
,491
,494
,493
,495
,497
,497
,501
,498
,503
,504
,496
,500
,496
,511
,516
,515
,517
,516
,519
,568
,626
,546
,273
,419
,510
,533
,539
,545
,550
,555
,561
,567
,580
,595
,610
,616
,611
,595
,565
,539
,521
,515
,513
,513
,514
,512
,517
,515
,519
,519
,521
,520
,522
,523
,523
,524
,526
,525
,528
,526
,528
,527
,529
,528
,528
,526
,530
,519
,523
,523
,537
,533
,534
,533
,534
,543
,596
,659
,516
,256
,475
,531
,540
,547
,553
,555
,558
,566
,573
,583
,595
,609
,613
,602
,576
,546
,520
,501
,499
,497
,495
,490
,492
,488
,491
,491
,496
,496
,494
,500
,498
,507
,508
,514
,520
,528
,529
,536
,539
,544
,469
,463
,560
,433
,454
,452
,469
,480
,480
,485
,487
,515
,659
,718
,687
,450
,500
,614
,643
,643
,656
,653
,655
,653
,655
,662
,671
,681
,683
,679
,663
,636
,607
,583
,571
,565
,559
,557
,552
,547
,543
,541
,533
,533
,521
,520
,518
,517
,518
,518
,519
,517
,516
,515
,513
,511
,497
,498
,496
,512
,511
,512
,512
,514
,521
,581
,619
,482
,226
,435
,512
,532
,538
,541
,543
,549
,556
,563
,573
,592
,601
,607
,601
,577
,548
,521
,506
,500
,499
,496
,499
,501
,501
,504
,502
,505
,504
,506
,506
,508
,511
,509
,512
,514
,514
,517
,518
,518
,518
,520
,520
,517
,512
,512
,514
,530
,526
,527
,527
,527
,542
,598
,647
,476
,278
,484
,527
,538
,541
,549
,550
,558
,564
,571
,584
,600
,609
,609
,601
,579
,548
,529
,514
,510
,511
,509
,515
,511
,515
,517
,514
,516
,515
,515
,516
,516
,516
,517
,521
,517
,519
,519
,517
,520
,518
,517
,518
,507
,511
,505
,523
,524
,523
,521
,523
,523
,583
,633
,517
,242
,436
,519
,533
,543
,545
,549
,556
,559
,569
,579
,594
,609
,613
,606
,587
,556
,530
,512
,506
,502
,502
,503
,502
,504
,504
,505
,506
,513
,512
,511
,512
,512
,514
,515
,517
,518
,518
,520
,517
,520
,522
,521
,522
,523
,516
,520
,516
,532
,531
,532
,533
,533
,536
,590
,669
,582
,255
,451
,523
,539
,548
,550
,557
,564
,569
,575
,587
,602
,616
,619
,613
,593
,564
,539
,521
,510
,505
,507
,504
,507
,507
,509
,512
,511
,512
,513
,511
,515
,513
,510
,514
,512
,515
,514
,514
,516
,514
,517
,517
,519
,516
,519
,517
,509
,513
,516
,527
,522
,523
,522
,526
,537
,593
,658
,507
,266
,478
,522
,530
,539
,543
,545
,551
,558
,569
,579
,594
,606
,606
,597
,572
,546
,518
,506
,500
,501
,498
,500
,501
,501
,504
,506
,506
,505
,508
,509
,508
,510
,509
,508
,509
,511
,509
,509
,508
,511
,511
,510
,513
,511
,513
,512
,505
,512
,507
,524
,520
,520
,522
,521
,528
,583
,660
,539
,242
,457
,522
,534
,542
,547
,552
,555
,563
,572
,582
,596
,611
,615
,608
,588
,556
,532
,515
,505
,505
,502
,504
,501
,504
,505
,508
,510
,510
,510
,509
,508
,506
,507
,506
,506
,505
,505
,506
,510
,507
,507
,510
,508
,509
,508
,507
,509
,501
,506
,500
,514
,514
,512
,512
,509
,514
,565
,634
,559
,253
,414
,498
,516
,525
,527
,531
,537
,544
,552
,563
,576
,590
,598
,594
,576
,546
,521
,502
,492
,492
,488
,490
,492
,492
,494
,495
,496
,497
,500
,501
,501
,502
,505
,504
,506
,509
,508
,507
,511
,512
,511
,513
,516
,516
,520
,519
,519
,517
,518
,522
,531
,527
,528
,527
,529
,551
,603
,647
,471
,322
,490
,528
,536
,540
,543
,547
,553
,560
,570
,580
,597
,605
,607
,593
,571
,541
,517
,507
,502
,503
,499
,500
,503
,504
,507
,507
,508
,506
,508
,507
,508
,509
,510
,508
,508
,513
,512
,512
,514
,515
,515
,517
,518
,518
,520
,518
,513
,517
,519
,529
,525
,525
,526
,526
,536
,593
,659
,518
,259
,477
,529
,536
,542
,548
,551
,557
,567
,573
,588
,603
,615
,618
,611
,591
,558
,533
,518
,512
,511
,509
,510
,510
,511
,511
,511
,511
,512
,511
,511
,511
,512
,512
,513
,514
,516
,515
,518
,517
,517
,519
,520
,520
,521
,518
,520
,516
,521
,518
,528
,527
,528
,525
,527
,527
,566
,627
,604
,349
,392
,504
,532
,538
,543
,547
,552
,558
,565
,575
,589
,602
,614
,611
,596
,571
,543
,522
,512
,509
,510
,509
,510
,513
,510
,513
,514
,512
,515
,513
,516
,514
,516
,516
,516
,517
,520
,517
,520
,520
,522
,520
,523
,522
,522
,519
,514
,516
,517
,529
,521
,522
,521
,523
,533
,589
,653
,530
,273
,475
,519
,528
,535
,537
,539
,544
,548
,554
,568
,581
,593
,595
,583
,565
,532
,510
,496
,487
,487
,486
,487
,488
,489
,488
,491
,493
,495
,495
,496
,496
,496
,497
,498
,500
,500
,502
,503
,506
,504
,507
,504
,500
,506
,508
,517
,517
,515
,517
,517
,534
,590
,623
,452
,293
,479
,525
,532
,541
,545
,547
,551
,561
,568
,583
,597
,609
,610
,598
,574
,543
,523
,509
,508
,506
,506
,505
,505
,508
,507
,511
,512
,511
,512
,513
,514
,513
,512
,517
,515
,518
,518
,520
,519
,518
,523
,521
,513
,514
,515
,522
,530
,527
,529
,530
,529
,564
,612
,578
,363
,368
,507
,539
,546
,550
,552
,557
,561
,568
,579
,592
,605
,616
,615
,604
,576
,546
,523
,512
,513
,508
,509
,506
,507
,507
,509
,509
,509
,510
,512
,511
,511
,511
,510
,513
,514
,509
,513
,514
,516
,512
,515
,514
,520
,509
,504
,495
,502
,512
,506
,508
,511
,516
,538
,596
,598
,387
,311
,487
,525
,532
,538
,544
,544
,556
,563
,569
,584
,596
,610
,608
,596
,575
,542
,521
,508
,508
,505
,504
,506
,509
,511
,510
,511
,513
,512
,512
,516
,520
,518
,522
,523
,524
,522
,527
,527
,527
,529
,526
,529
,528
,528
,524
,521
,520
,529
,535
,535
,530
,532
,531
,565
,621
,621
,386
,362
,511
,542
,544
,557
,558
,561
,569
,572
,584
,591
,604
,616
,611
,599
,575
,539
,517
,510
,503
,504
,504
,502
,502
,504
,507
,504
,503
,505
,506
,504
,506
,505
,505
,506
,501
,505
,505
,505
,507
,511
,513
,512
,516
,516
,520
,515
,516
,513
,528
,528
,527
,527
,527
,525
,575
,634
,592
,306
,406
,509
,534
,546
,546
,555
,558
,564
,573
,582
,599
,616
,623
,618
,605
,573
,547
,523
,510
,508
,504
,505
,501
,502
,503
,497
,503
,505
,508
,511
,513
,512
,514
,512
,515
,513
,514
,517
,518
,516
,519
,519
,522
,521
,520
,526
,524
,522
,524
,529
,538
,532
,535
,535
,541
,563
,628
,688
,490
,345
,511
,546
,554
,560
,562
,567
,573
,576
,586
,601
,610
,621
,619
,605
,582
,545
,522
,510
,505
,504
,503
,503
,503
,506
,506
,506
,504
,506
,505
,505
,505
,507
,505
,505
,506
,504
,506
,507
,507
,513
,508
,507
,505
,501
,514
,519
,515
,520
,517
,520
,571
,641
,577
,259
,414
,500
,526
,530
,537
,542
,545
,549
,558
,572
,584
,599
,604
,599
,584
,552
,521
,504
,495
,493
,490
,490
,491
,490
,495
,495
,498
,499
,497
,499
,499
,500
,500
,503
,503
,506
,500
,498
,491
,494
,507
,519
,519
,518
,523
,519
,568
,638
,610
,302
,399
,507
,527
,536
,541
,544
,548
,558
,564
,575
,590
,603
,612
,608
,591
,560
,531
,511
,503
,503
,503
,503
,504
,509
,509
,512
,513
,514
,513
,516
,513
,515
,515
,513
,504
,500
,511
,524
,531
,533
,532
,535
,546
,604
,689
,563
,265
,488
,536
,546
,550
,554
,559
,561
,568
,576
,586
,604
,612
,610
,600
,576
,544
,521
,508
,503
,502
,500
,501
,501
,503
,507
,505
,506
,505
,505
,506
,506
,508
,505
,505
,506
,509
,506
,503
,500
,490
,489
,507
,517
,517
,519
,520
,521
,569
,638
,573
,264
,422
,505
,524
,530
,532
,537
,542
,548
,554
,566
,579
,594
,600
,592
,580
,546
,523
,500
,494
,492
,492
,493
,491
,495
,495
,496
,495
,498
,498
,495
,499
,500
,498
,501
,502
,502
,503
,504
,506
,507
,503
,503
,489
,495
,507
,521
,522
,523
,522
,526
,566
,628
,596
,325
,405
,507
,531
,536
,541
,544
,548
,554
,563
,570
,586
,599
,604
,603
,587
,562
,534
,514
,504
,501
,502
,502
,502
,502
,503
,503
,504
,507
,506
,508
,508
,509
,510
,511
,512
,513
,513
,515
,513
,515
,517
,516
,518
,515
,514
,507
,503
,509
,526
,525
,527
,527
,531
,535
,588
,663
,553
,257
,477
,526
,537
,543
,546
,550
,555
,560
,568
,579
,594
,605
,610
,603
,584
,555
,529
,513
,508
,506
,507
,508
,508
,507
,510
,507
,510
,510
,512
,511
,513
,515
,514
,513
,514
,516
,513
,518
,518
,517
,518
,521
,519
,519
,522
,523
,516
,514
,505
,525
,531
,529
,530
,529
,531
,569
,626
,606
,368
,396
,507
,532
,537
,545
,545
,550
,556
,561
,572
,584
,597
,607
,605
,591
,566
,536
,514
,505
,500
,500
,500
,500
,499
,502
,499
,501
,502
,504
,503
,505
,507
,505
,507
,509
,507
,508
,511
,509
,511
,509
,512
,513
,513
,513
,516
,512
,515
,516
,519
,507
,509
,504
,522
,523
,522
,524
,523
,525
,568
,625
,590
,332
,408
,507
,528
,535
,539
,543
,546
,553
,562
,571
,583
,598
,609
,605
,591
,565
,537
,514
,505
,501
,503
,502
,502
,504
,504
,502
,504
,506
,504
,510
,506
,509
,508
,509
,509
,510
,514
,511
,514
,513
,513
,514
,516
,514
,517
,517
,517
,518
,519
,519
,512
,516
,512
,529
,526
,523
,527
,526
,529
,581
,642
,575
,275
,438
,515
,530
,539
,542
,547
,551
,558
,564
,574
,590
,604
,613
,608
,593
,565
,536
,516
,507
,503
,501
,502
,502
,504
,503
,505
,503
,504
,507
,507
,509
,510
,508
,509
,512
,511
,513
,513
,512
,513
,514
,516
,517
,517
,518
,519
,518
,521
,522
,516
,516
,516
,523
,530
,526
,527
,528
,526
,553
,608
,629
,434
,341
,498
,529
,536
,543
,547
,549
,555
,562
,572
,584
,598
,610
,611
,598
,576
,545
,521
,510
,503
,501
,502
,504
,503
,505
,505
,505
,507
,509
,510
,510
,510
,513
,513
,512
,513
,514
,514
,514
,515
,516
,515
,517
,516
,516
,519
,519
,515
,514
,514
,521
,529
,522
,527
,527
,529
,559
,617
,627
,419
,361
,502
,533
,540
,546
,549
,552
,557
,566
,573
,587
,598
,609
,611
,596
,571
,543
,517
,505
,499
,498
,496
,499
,499
,499
,500
,498
,502
,499
,501
,499
,501
,503
,500
,501
,503
,503
,503
,506
,504
,506
,510
,509
,511
,511
,506
,503
,505
,514
,521
,518
,517
,521
,519
,562
,617
,592
,341
,385
,497
,524
,534
,538
,543
,548
,552
,560
,571
,583
,598
,608
,609
,595
,566
,537
,516
,505
,503
,502
,503
,504
,507
,507
,508
,509
,513
,511
,514
,511
,514
,513
,516
,517
,517
,520
,520
,521
,524
,525
,526
,528
,525
,519
,525
,527
,539
,534
,535
,537
,537
,559
,615
,652
,457
,327
,504
,539
,549
,552
,557
,559
,564
,571
,580
,592
,610
,620
,621
,608
,585
,548
,528
,512
,507
,505
,505
,505
,507
,507
,506
,506
,505
,507
,508
,506
,507
,507
,508
,506
,509
,508
,509
,509
,511
,509
,510
,512
,508
,506
,504
,512
,519
,515
,515
,515
,517
,546
,604
,614
,390
,346
,489
,520
,525
,532
,537
,538
,546
,552
,563
,576
,591
,602
,602
,589
,562
,533
,510
,499
,494
,492
,494
,497
,497
,496
,500
,496
,498
,500
,503
,500
,503
,504
,505
,508
,506
,510
,510
,510
,512
,511
,515
,516
,514
,510
,510
,519
,527
,524
,524
,525
,525
,549
,605
,641
,453
,331
,491
,523
,531
,535
,539
,542
,544
,551
,561
,575
,587
,598
,598
,587
,561
,533
,511
,498
,492
,492
,491
,490
,493
,493
,494
,494
,497
,497
,496
,495
,497
,498
,500
,500
,500
,501
,503
,503
,504
,504
,504
,504
,507
,507
,504
,501
,499
,508
,516
,511
,509
,510
,510
,537
,590
,605
,399
,332
,486
,515
,522
,530
,530
,540
,543
,551
,561
,575
,591
,602
,599
,592
,567
,536
,513
,499
,496
,494
,494
,494
,496
,495
,499
,501
,504
,505
,507
,509
,511
,509
,514
,514
,515
,515
,516
,517
,517
,517
,521
,522
,522
,525
,522
,523
,520
,517
,517
,529
,531
,529
,529
,529
,530
,570
,627
,603
,347
,400
,510
,531
,539
,543
,545
,549
,553
,561
,573
,592
,620
,619
,617
,604
,573
,545
,520
,511
,505
,506
,506
,505
,503
,505
,500
,502
,501
,503
,501
,502
,503
,501
,503
,502
,506
,510
,507
,511
,509
,511
,511
,514
,515
,517
,515
,516
,509
,513
,513
,527
,522
,521
,521
,523
,528
,575
,659
,575
,246
,458
,513
,525
,538
,545
,546
,551
,556
,566
,573
,586
,600
,606
,600
,578
,546
,521
,504
,496
,496
,493
,497
,491
,495
,494
,493
,497
,496
,497
,497
,498
,497
,500
,499
,502
,505
,506
,508
,510
,510
,514
,508
,515
,515
,516
,507
,518
,515
,530
,533
,529
,534
,536
,539
,593
,657
,563
,268
,458
,526
,541
,556
,558
,558
,558
,562
,569
,581
,594
,610
,618
,614
,597
,568
,549
,524
,516
,513
,509
,512
,503
,507
,503
,504
,502
,501
,500
,502
,499
,497
,501
,496
,501
,496
,495
,492
,496
,493
,495
,496
,496
,497
,499
,495
,501
,497
,513
,509
,512
,513
,511
,516
,569
,633
,538
,243
,427
,504
,526
,528
,540
,543
,549
,556
,565
,575
,595
,605
,616
,615
,597
,568
,542
,523
,508
,513
,512
,511
,511
,512
,514
,515
,514
,518
,517
,519
,521
,519
,520
,520
,518
,520
,521
,523
,521
,524
,524
,525
,525
,526
,527
,524
,516
,521
,517
,534
,529
,529
,532
,531
,537
,598
,668
,528
,254
,477
,528
,535
,541
,547
,551
,553
,559
,567
,579
,594
,611
,617
,612
,593
,561
,534
,515
,511
,507
,506
,508
,505
,507
,507
,510
,510
,514
,512
,516
,516
,516
,516
,514
,519
,517
,517
,518
,518
,520
,518
,518
,518
,518
,515
,514
,511
,520
,527
,524
,523
,523
,523
,543
,599
,649
,469
,306
,489
,525
,532
,538
,543
,547
,550
,558
,564
,579
,592
,604
,609
,601
,579
,546
,521
,505
,501
,499
,498
,497
,498
,497
,500
,500
,503
,502
,503
,505
,504
,506
,507
,509
,509
,511
,510
,511
,513
,513
,515
,514
,519
,519
,521
,519
,516
,518
,521
,536
,527
,532
,531
,532
,546
,601
,676
,532
,288
,492
,532
,542
,546
,550
,556
,559
,565
,576
,587
,602
,619
,621
,616
,594
,563
,535
,519
,513
,512
,509
,512
,510
,510
,509
,511
,510
,510
,512
,510
,510
,509
,511
,512
,509
,510
,511
,512
,515
,516
,517
,521
,520
,527
,526
,524
,524
,527
,535
,538
,537
,536
,538
,538
,571
,635
,631
,377
,390
,509
,536
,541
,547
,549
,552
,557
,558
,574
,582
,595
,605
,603
,592
,570
,538
,516
,501
,499
,499
,496
,494
,494
,495
,499
,500
,502
,502
,505
,502
,506
,504
,503
,503
,501
,506
,506
,506
,507
,505
,506
,505
,505
,504
,495
,500
,499
,512
,513
,510
,512
,514
,514
,568
,603
,474
,231
,407
,505
,524
,534
,539
,542
,543
,550
,557
,566
,580
,599
,605
,609
,594
,570
,542
,522
,514
,510
,511
,512
,514
,516
,517
,518
,522
,520
,521
,524
,526
,526
,528
,530
,531
,532
,536
,538
,538
,543
,539
,542
,543
,542
,534
,539
,535
,548
,554
,554
,554
,553
,551
,578
,645
,658
,442
,369
,520
,549
,555
,558
,561
,565
,565
,571
,581
,589
,605
,613
,614
,605
,578
,544
,521
,506
,500
,498
,497
,494
,495
,492
,493
,490
,488
,490
,488
,487
,486
,486
,485
,485
,486
,486
,484
,485
,487
,487
,489
,486
,482
,477
,479
,486
,498
,498
,499
,501
,503
,517
,573
,621
,434
,265
,469
,504
,512
,517
,520
,525
,531
,538
,546
,559
,577
,587
,590
,583
,561
,530
,506
,489
,486
,483
,486
,484
,485
,486
,488
,487
,490
,490
,492
,490
,491
,493
,493
,494
,496
,496
,496
,497
,498
,493
,487
,482
,488
,510
,510
,510
,509
,512
,527
,585
,647
,461
,272
,478
,517
,524
,532
,535
,538
,547
,552
,562
,577
,589
,603
,607
,601
,579
,544
,521
,507
,501
,501
,501
,503
,504
,507
,505
,509
,510
,513
,512
,515
,517
,520
,521
,518
,514
,505
,504
,525
,534
,536
,537
,538
,539
,579
,649
,630
,347
,407
,521
,545
,550
,555
,559
,563
,569
,576
,586
,599
,614
,618
,618
,602
,568
,540
,519
,506
,501
,501
,500
,501
,501
,500
,498
,497
,498
,496
,497
,496
,493
,497
,494
,495
,494
,492
,494
,490
,484
,475
,475
,481
,499
,498
,500
,501
,498
,523
,579
,605
,390
,291
,468
,499
,507
,513
,517
,522
,528
,534
,541
,555
,570
,581
,581
,572
,546
,519
,493
,479
,477
,473
,475
,475
,478
,482
,480
,480
,480
,481
,483
,483
,484
,484
,487
,485
,488
,482
,476
,471
,476
,495
,498
,497
,503
,501
,513
,569
,640
,479
,238
,461
,502
,512
,517
,524
,527
,532
,536
,547
,557
,570
,582
,582
,575
,555
,525
,500
,486
,484
,481
,483
,486
,488
,491
,490
,494
,492
,495
,494
,492
,496
,497
,499
,500
,503
,502
,498
,494
,486
,488
,508
,518
,519
,520
,520
,525
,585
,652
,496
,223
,459
,520
,533
,540
,546
,548
,554
,559
,568
,581
,595
,609
,613
,609
,590
,559
,533
,516
,508
,505
,505
,506
,510
,508
,510
,511
,509
,510
,511
,512
,515
,514
,514
,515
,516
,514
,513
,502
,498
,508
,528
,527
,529
,528
,530
,557
,615
,628
,369
,344
,507
,539
,548
,553
,556
,558
,565
,575
,581
,595
,609
,617
,617
,605
,579
,547
,525
,513
,509
,507
,508
,508
,509
,509
,511
,511
,510
,513
,511
,515
,514
,513
,515
,513
,516
,516
,517
,511
,505
,501
,505
,523
,527
,529
,526
,529
,542
,600
,675
,492
,263
,487
,531
,539
,547
,550
,554
,559
,567
,574
,586
,600
,609
,611
,601
,581
,550
,523
,508
,503
,499
,500
,499
,502
,503
,503
,500
,503
,503
,502
,503
,502
,503
,501
,504
,504
,503
,503
,504
,502
,499
,491
,489
,500
,514
,516
,519
,519
,521
,554
,611
,611
,340
,361
,496
,527
,535
,539
,545
,549
,556
,564
,575
,581
,600
,605
,601
,591
,560
,529
,511
,497
,490
,488
,487
,488
,488
,489
,490
,489
,491
,494
,497
,493
,497
,500
,501
,505
,505
,508
,510
,512
,515
,515
,517
,512
,509
,502
,507
,525
,528
,526
,527
,528
,550
,609
,653
,434
,319
,498
,535
,540
,547
,552
,557
,564
,571
,581
,590
,605
,613
,613
,603
,581
,550
,525
,512
,508
,504
,504
,505
,503
,504
,507
,505
,507
,506
,507
,507
,506
,507
,507
,507
,509
,509
,511
,509
,512
,511
,507
,508
,498
,495
,504
,519
,520
,521
,521
,524
,561
,619
,617
,348
,366
,501
,531
,538
,543
,545
,551
,558
,565
,574
,588
,599
,607
,604
,593
,564
,537
,513
,504
,498
,498
,498
,499
,500
,503
,502
,504
,505
,504
,503
,507
,506
,507
,506
,508
,507
,509
,513
,513
,513
,509
,508
,500
,494
,511
,525
,522
,525
,526
,526
,582
,650
,576
,250
,429
,514
,533
,541
,545
,551
,555
,563
,570
,580
,596
,605
,613
,609
,590
,560
,533
,511
,504
,498
,499
,497
,499
,502
,502
,502
,503
,504
,503
,503
,502
,504
,502
,504
,503
,499
,494
,487
,492
,508
,516
,517
,517
,520
,534
,599
,670
,455
,278
,483
,523
,531
,537
,542
,547
,552
,558
,567
,581
,595
,606
,606
,591
,569
,537
,513
,501
,498
,497
,497
,498
,498
,502
,503
,503
,505
,505
,506
,508
,509
,511
,509
,514
,508
,506
,499
,500
,515
,530
,529
,531
,534
,537
,596
,695
,574
,235
,475
,530
,542
,548
,553
,556
,562
,567
,576
,587
,600
,611
,613
,605
,583
,551
,524
,508
,502
,500
,498
,499
,500
,501
,502
,501
,500
,501
,499
,501
,501
,502
,502
,502
,503
,500
,497
,486
,487
,497
,514
,514
,517
,518
,518
,562
,631
,608
,287
,392
,497
,525
,532
,537
,543
,546
,553
,560
,571
,584
,598
,603
,598
,585
,556
,527
,507
,498
,493
,494
,494
,496
,497
,496
,498
,496
,498
,498
,499
,499
,499
,501
,503
,504
,502
,505
,507
,506
,504
,496
,494
,500
,519
,520
,523
,526
,527
,563
,620
,620
,351
,363
,501
,534
,539
,543
,548
,550
,555
,563
,572
,584
,599
,607
,603
,591
,564
,533
,512
,497
,495
,489
,493
,493
,495
,495
,495
,497
,497
,498
,499
,498
,500
,499
,501
,503
,502
,504
,504
,508
,502
,502
,492
,491
,508
,519
,520
,523
,524
,524
,583
,665
,580
,236
,446
,518
,535
,540
,549
,552
,560
,564
,573
,585
,596
,611
,614
,608
,592
,563
,535
,515
,510
,503
,505
,506
,507
,504
,508
,505
,506
,507
,501
,502
,500
,502
,500
,502
,499
,504
,503
,504
,503
,501
,496
,494
,505
,524
,526
,530
,529
,530
,573
,645
,633
,347
,402
,508
,532
,534
,539
,541
,543
,552
,555
,566
,572
,598
,598
,592
,575
,548
,514
,495
,480
,475
,468
,467
,467
,469
,470
,470
,473
,476
,479
,483
,482
,490
,490
,497
,499
,502
,500
,497
,490
,491
,497
,521
,522
,521
,527
,530
,563
,625
,648
,386
,361
,501
,533
,531
,544
,545
,551
,558
,566
,576
,591
,602
,608
,606
,593
,566
,536
,510
,500
,496
,494
,498
,494
,496
,500
,501
,503
,498
,505
,506
,507
,509
,509
,510
,513
,517
,515
,514
,515
,497
,495
,503
,517
,520
,514
,521
,524
,571
,648
,615
,281
,423
,510
,531
,535
,541
,543
,547
,550
,555
,567
,581
,592
,598
,593
,577
,550
,524
,503
,492
,491
,485
,487
,483
,485
,486
,486
,489
,488
,488
,497
,497
,398
,396
,398
,408
,408
,424
,426
,432
,430
,431
,443
,468
,472
,479
,480
,488
,524
,605
,634
,365
,364
,491
,520
,525
,537
,542
,547
,556
,563
,577
,588
,603
,609
,611
,599
,570
,547
,523
,520
,516
,516
,515
,519
,518
,516
,521
,515
,520
,516
,517
,519
,519
,521
,520
,526
,524
,529
,529
,531
,524
,523
,521
,521
,533
,545
,543
,543
,545
,549
,608
,696
,598
,266
,489
,533
,544
,547
,553
,559
,562
,565
,574
,584
,599
,607
,616
,602
,583
,554
,529
,516
,507
,503
,505
,501
,505
,504
,504
,507
,503
,506
,504
,509
,506
,508
,510
,511
,512
,514
,514
,515
,516
,512
,513
,505
,505
,515
,530
,530
,529
,531
,538
,583
,683
,633
,261
,466
,523
,620
,683
,674
,672
,667
,666
,663
,672
,677
,683
,688
,672
,654
,618
,594
,567
,558
,551
,544
,538
,533
,532
,531
,525
,525
,520
,518
,517
,513
,515
,508
,507
,504
,503
,497
,493
,481
,483
,492
,503
,501
,502
,499
,504
,558
,633
,530
,203
,437
,491
,501
,505
,508
,514
,516
,521
,531
,541
,560
,571
,575
,567
,543
,510
,485
,465
,463
,459
,458
,456
,460
,463
,466
,468
,475
,475
,475
,480
,480
,483
,489
,488
,489
,490
,492
,491
,488
,479
,476
,484
,502
,503
,507
,509
,511
,554
,618
,576
,306
,396
,495
,518
,526
,528
,533
,537
,542
,548
,557
,573
,586
,596
,593
,582
,555
,527
,509
,499
,497
,495
,498
,496
,496
,496
,495
,497
,499
,500
,502
,502
,503
,505
,506
,506
,508
,509
,508
,511
,512
,506
,507
,497
,500
,511
,526
,526
,528
,528
,536
,593
,669
,554
,246
,479
,527
,539
,545
,549
,552
,557
,561
,570
,580
,592
,609
,611
,606
,588
,562
,536
,520
,513
,510
,511
,509
,510
,509
,509
,511
,508
,513
,513
,513
,516
,517
,516
,515
,516
,517
,520
,519
,519
,519
,516
,512
,503
,501
,504
,518
,524
,524
,525
,524
,556
,611
,617
,403
,364
,497
,524
,529
,535
,538
,542
,546
,549
,560
,572
,583
,591
,595
,579
,557
,529
,507
,495
,492
,488
,489
,489
,488
,492
,494
,495
,495
,493
,495
,497
,495
,496
,495
,497
,501
,502
,501
,503
,502
,502
,505
,503
,499
,498
,489
,489
,500
,513
,508
,510
,509
,515
,574
,646
,524
,241
,467
,514
,522
,533
,537
,546
,553
,556
,563
,575
,591
,602
,604
,601
,580
,555
,530
,516
,508
,501
,501
,502
,504
,502
,503
,505
,505
,508
,507
,505
,505
,504
,508
,506
,507
,507
,505
,506
,509
,510
,502
,502
,494
,494
,508
,523
,525
,523
,523
,530
,587
,663
,543
,239
,468
,520
,530
,536
,541
,544
,551
,556
,562
,569
,587
,596
,602
,596
,579
,552
,526
,509
,499
,498
,496
,499
,500
,501
,502
,503
,502
,504
,504
,503
,504
,505
,505
,506
,506
,507
,504
,509
,500
,499
,488
,490
,505
,515
,516
,518
,517
,527
,589
,658
,507
,254
,480
,525
,535
,543
,546
,550
,555
,562
,569
,580
,593
,604
,606
,596
,581
,550
,525
,511
,507
,504
,503
,508
,506
,509
,508
,507
,513
,511
,511
,513
,513
,514
,512
,514
,514
,510
,506
,500
,499
,517
,527
,523
,527
,527
,541
,599
,673
,528
,280
,489
,526
,537
,543
,543
,549
,556
,559
,568
,578
,595
,601
,601
,590
,571
,539
,524
,507
,502
,499
,499
,501
,500
,501
,501
,502
,501
,504
,502
,502
,496
,492
,481
,489
,502
,512
,511
,511
,514
,524
,587
,650
,483
,267
,476
,513
,521
,528
,532
,537
,541
,548
,557
,567
,581
,592
,585
,578
,552
,525
,505
,493
,489
,486
,491
,489
,493
,495
,497
,494
,496
,496
,499
,497
,495
,486
,479
,486
,504
,511
,513
,515
,514
,544
,603
,629
,394
,344
,491
,520
,530
,534
,537
,540
,547
,553
,562
,576
,586
,593
,589
,575
,550
,528
,507
,498
,495
,493
,495
,498
,500
,501
,501
,500
,502
,502
,496
,492
,484
,482
,500
,511
,510
,513
,511
,521
,581
,661
,531
,229
,466
,515
,523
,530
,534
,539
,544
,550
,557
,570
,580
,588
,588
,577
,558
,532
,510
,498
,494
,491
,491
,495
,493
,496
,497
,499
,499
,499
,500
,498
,491
,482
,490
,508
,515
,519
,517
,520
,545
,606
,657
,460
,333
,497
,529
,536
,541
,544
,552
,553
,561
,568
,584
,595
,600
,599
,586
,565
,538
,522
,511
,507
,507
,507
,508
,507
,511
,506
,509
,509
,507
,502
,504
,489
,489
,495
,510
,516
,518
,519
,518
,556
,617
,614
,340
,384
,496
,522
,529
,536
,536
,543
,545
,553
,562
,573
,586
,584
,580
,567
,543
,516
,503
,496
,492
,492
,494
,493
,497
,498
,500
,497
,499
,498
,498
,497
,497
,498
,500
,494
,490
,480
,478
,497
,510
,509
,512
,513
,528
,583
,631
,450
,277
,475
,514
,521
,526
,529
,535
,540
,547
,551
,561
,576
,584
,581
,573
,550
,528
,505
,493
,487
,487
,486
,488
,489
,491
,493
,493
,497
,496
,497
,495
,501
,501
,502
,503
,503
,502
,502
,499
,491
,490
,504
,521
,522
,523
,523
,539
,599
,664
,501
,297
,494
,527
,533
,539
,547
,547
,551
,560
,566
,577
,591
,602
,600
,590
,571
,545
,524
,513
,505
,507
,504
,505
,506
,506
,509
,509
,511
,512
,512
,517
,514
,516
,518
,519
,519
,522
,521
,522
,523
,527
,524
,522
,518
,508
,512
,527
,534
,534
,535
,535
,573
,640
,630
,354
,412
,507
,531
,537
,539
,544
,547
,550
,554
,563
,575
,583
,593
,585
,577
,554
,530
,511
,499
,494
,492
,493
,493
,493
,495
,496
,497
,498
,498
,496
,498
,497
,498
,500
,498
,500
,499
,504
,501
,503
,505
,503
,500
,498
,491
,487
,498
,511
,514
,515
,515
,526
,581
,650
,552
,251
,469
,514
,523
,530
,533
,540
,542
,547
,557
,564
,579
,590
,594
,583
,572
,543
,521
,505
,500
,495
,497
,495
,493
,496
,497
,499
,501
,504
,503
,505
,503
,506
,505
,507
,508
,507
,510
,510
,511
,511
,512
,512
,514
,514
,513
,513
,511
,503
,499
,504
,521
,526
,526
,526
,530
,580
,649
,592
,271
,451
,514
,527
,534
,538
,543
,546
,549
,557
,564
,578
,590
,597
,591
,581
,557
,530
,511
,504
,500
,501
,496
,498
,495
,499
,497
,501
,502
,503
,503
,506
,509
,506
,510
,509
,511
,513
,513
,512
,516
,517
,517
,520
,520
,521
,522
,522
,522
,518
,511
,512
,521
,533
,532
,534
,535
,540
,590
,669
,602
,272
,482
,523
,536
,539
,542
,544
,548
,549
,559
,566
,577
,588
,594
,587
,574
,548
,522
,506
,497
,493
,490
,490
,489
,491
,492
,493
,496
,495
,495
,496
,499
,498
,499
,499
,501
,499
,501
,502
,502
,504
,504
,505
,505
,507
,507
,509
,502
,502
,493
,495
,514
,514
,518
,519
,519
,552
,607
,616
,400
,373
,491
,519
,526
,528
,535
,535
,541
,546
,552
,566
,580
,590
,590
,580
,561
,532
,512
,499
,495
,493
,492
,492
,496
,494
,497
,497
,501
,502
,502
,503
,504
,502
,505
,504
,507
,505
,509
,511
,510
,512
,513
,513
,515
,515
,517
,514
,510
,506
,504
,513
,527
,526
,528
,526
,531
,580
,644
,600
,294
,444
,517
,531
,541
,543
,548
,552
,555
,561
,569
,585
,595
,606
,602
,592
,570
,539
,519
,507
,505
,501
,501
,501
,501
,503
,503
,505
,507
,508
,508
,508
,509
,507
,506
,507
,508
,508
,508
,509
,509
,510
,510
,511
,505
,504
,492
,493
,513
,518
,519
,518
,520
,544
,600
,623
,445
,334
,488
,519
,522
,530
,531
,537
,541
,546
,554
,565
,578
,589
,591
,581
,561
,532
,511
,497
,490
,488
,487
,489
,491
,493
,493
,496
,495
,497
,499
,498
,497
,501
,502
,503
,503
,506
,505
,506
,509
,507
,505
,504
,493
,495
,511
,522
,522
,520
,527
,544
,602
,647
,489
,317
,495
,524
,533
,542
,543
,549
,550
,555
,562
,574
,590
,602
,602
,593
,574
,548
,524
,508
,501
,499
,502
,503
,500
,503
,502
,506
,508
,505
,504
,506
,505
,506
,506
,505
,507
,509
,504
,504
,495
,492
,507
,520
,521
,521
,521
,529
,585
,666
,563
,243
,467
,518
,528
,537
,537
,543
,546
,554
,558
,573
,584
,596
,603
,596
,578
,555
,525
,509
,502
,498
,496
,498
,500
,502
,503
,503
,506
,506
,507
,506
,511
,512
,510
,510
,506
,497
,495
,511
,524
,524
,525
,526
,535
,589
,676
,567
,249
,479
,523
,533
,539
,544
,550
,552
,557
,565
,575
,586
,598
,602
,593
,580
,549
,527
,512
,504
,502
,501
,503
,502
,505
,507
,505
,504
,506
,505
,504
,506
,501
,500
,489
,482
,498
,513
,513
,514
,516
,517
,569
,642
,576
,239
,433
,501
,521
,525
,529
,534
,536
,541
,548
,559
,573
,581
,589
,579
,564
,541
,514
,498
,487
,484
,485
,488
,489
,490
,493
,493
,497
,496
,495
,499
,496
,498
,499
,501
,495
,491
,482
,485
,503
,515
,514
,515
,517
,546
,602
,626
,409
,347
,491
,520
,527
,533
,535
,539
,542
,548
,557
,571
,581
,591
,588
,577
,557
,528
,509
,494
,491
,490
,492
,492
,496
,496
,496
,500
,499
,498
,500
,501
,502
,502
,504
,504
,503
,497
,491
,486
,488
,511
,513
,513
,519
,519
,561
,614
,588
,336
,385
,500
,524
,529
,536
,537
,543
,546
,552
,562
,573
,586
,594
,590
,579
,557
,530
,510
,498
,491
,493
,493
,493
,495
,496
,499
,500
,501
,505
,503
,504
,508
,505
,509
,512
,511
,511
,512
,508
,505
,495
,495
,502
,519
,520
,523
,524
,529
,588
,653
,540
,240
,466
,517
,529
,538
,538
,546
,548
,553
,561
,569
,582
,595
,598
,590
,574
,549
,525
,507
,494
,493
,495
,495
,496
,499
,497
,499
,502
,505
,506
,498
,502
,501
,505
,506
,502
,505
,503
,505
,501
,506
,501
,497
,488
,490
,507
,519
,520
,519
,522
,537
,599
,646
,490
,288
,484
,517
,528
,530
,535
,541
,543
,550
,559
,566
,583
,594
,592
,586
,569
,546
,522
,504
,500
,496
,499
,499
,501
,501
,499
,505
,503
,505
,504
,505
,503
,504
,504
,508
,505
,509
,510
,503
,503
,495
,493
,508
,517
,518
,517
,519
,545
,602
,641
,423
,319
,488
,518
,527
,532
,536
,542
,548
,553
,562
,571
,587
,592
,591
,579
,560
,536
,512
,502
,497
,496
,494
,494
,497
,499
,501
,502
,504
,502
,502
,502
,501
,502
,502
,508
,507
,501
,497
,495
,493
,512
,523
,521
,524
,527
,555
,622
,658
,407
,357
,504
,527
,537
,538
,545
,551
,554
,561
,571
,582
,594
,601
,594
,584
,562
,537
,517
,504
,496
,500
,500
,501
,508
,500
,501
,500
,499
,498
,498
,497
,494
,497
,483
,480
,493
,510
,510
,506
,515
,516
,564
,656
,621
,246
,415
,496
,520
,528
,529
,535
,538
,545
,550
,562
,574
,581
,586
,576
,566
,540
,515
,500
,494
,487
,493
,495
,495
,498
,500
,501
,504
,502
,507
,507
,502
,501
,488
,492
,508
,523
,522
,526
,524
,539
,602
,667
,504
,268
,484
,525
,531
,534
,538
,542
,545
,556
,558
,574
,589
,597
,592
,582
,566
,535
,512
,501
,491
,492
,493
,492
,498
,496
,499
,500
,499
,496
,491
,487
,477
,478
,495
,507
,507
,504
,508
,530
,595
,649
,436
,303
,480
,512
,519
,526
,531
,534
,539
,544
,553
,567
,580
,587
,583
,572
,558
,533
,512
,507
,504
,505
,503
,508
,508
,512
,514
,510
,516
,515
,515
,509
,502
,502
,522
,534
,533
,536
,543
,561
,626
,691
,479
,351
,513
,543
,554
,560
,559
,565
,568
,576
,583
,596
,609
,612
,608
,594
,575
,551
,529
,523
,516
,516
,515
,518
,516
,519
,516
,518
,516
,512
,512
,496
,495
,509
,524
,522
,524
,524
,529
,582
,660
,601
,241
,465
,514
,529
,536
,536
,540
,541
,544
,553
,561
,573
,576
,574
,564
,552
,527
,506
,491
,481
,482
,484
,485
,484
,484
,487
,486
,484
,480
,481
,466
,462
,469
,491
,496
,494
,497
,497
,544
,595
,570
,285
,393
,480
,506
,511
,516
,520
,521
,527
,532
,541
,552
,560
,564
,557
,541
,518
,500
,482
,472
,472
,473
,475
,472
,475
,476
,472
,471
,466
,466
,460
,444
,438
,458
,474
,471
,471
,466
,481
,532
,574
,425
,219
,432
,480
,496
,499
,503
,506
,516
,522
,531
,552
,566
,577
,573
,572
,550
,525
,515
,499
,493
,490
,493
,493
,490
,495
,497
,496
,503
,500
,501
,502
,498
,496
,477
,478
,483
,505
,511
,514
,514
,515
,567
,623
,549
,254
,437
,508
,528
,533
,540
,544
,548
,553
,559
,572
,581
,596
,598
,592
,581
,556
,529
,515
,511
,505
,509
,508
,509
,507
,508
,508
,510
,513
,512
,513
,515
,516
,515
,511
,506
,498
,494
,501
,522
,533
,527
,533
,535
,587
,641
,551
,260
,449
,523
,543
,551
,555
,558
,565
,571
,578
,590
,605
,616
,616
,608
,598
,573
,550
,531
,522
,524
,522
,520
,522
,524
,528
,528
,528
,533
,534
,534
,532
,533
,533
,535
,536
,534
,531
,531
,522
,521
,523
,541
,544
,550
,546
,550
,600
,654
,593
,286
,464
,533
,554
,560
,558
,561
,563
,560
,569
,576
,587
,595
,597
,584
,573
,548
,530
,508
,503
,498
,498
,498
,504
,503
,505
,505
,503
,505
,506
,505
,507
,510
,515
,513
,513
,507
,507
,495
,495
,511
,524
,525
,528
,528
,538
,592
,644
,491
,277
,485
,524
,535
,537
,541
,543
,547
,553
,557
,564
,579
,587
,583
,571
,552
,524
,503
,488
,481
,478
,480
,481
,482
,481
,484
,484
,485
,483
,484
,483
,486
,485
,486
,484
,481
,477
,468
,467
,471
,493
,495
,493
,499
,498
,553
,616
,542
,232
,421
,491
,508
,514
,519
,521
,528
,533
,541
,551
,561
,573
,578
,571
,556
,531
,509
,493
,482
,482
,483
,483
,487
,488
,492
,489
,493
,492
,494
,493
,493
,497
,498
,497
,493
,486
,487
,492
,515
,516
,522
,519
,525
,570
,638
,603
,312
,422
,512
,532
,537
,544
,546
,549
,557
,564
,575
,583
,599
,602
,596
,584
,554
,537
,515
,506
,500
,499
,503
,502
,505
,505
,510
,505
,506
,509
,508
,510
,504
,502
,488
,485
,491
,510
,513
,513
,514
,515
,557
,614
,589
,301
,408
,498
,526
,531
,532
,539
,543
,549
,556
,563
,574
,589
,588
,581
,569
,538
,518
,501
,491
,489
,486
,487
,491
,495
,498
,495
,493
,498
,494
,500
,498
,498
,491
,490
,480
,475
,496
,510
,505
,509
,516
,534
,579
,629
,454
,256
,469
,508
,510
,514
,518
,519
,524
,533
,542
,557
,569
,577
,574
,568
,553
,522
,497
,485
,482
,481
,486
,477
,492
,488
,489
,497
,493
,494
,497
,499
,490
,490
,491
,483
,482
,502
,507
,520
,510
,516
,562
,618
,595
,332
,392
,506
,528
,539
,541
,545
,552
,557
,564
,569
,585
,592
,595
,590
,581
,554
,528
,512
,501
,498
,498
,496
,499
,498
,498
,502
,500
,503
,500
,500
,495
,494
,481
,484
,489
,508
,506
,513
,512
,523
,582
,671
,553
,228
,464
,523
,527
,535
,536
,546
,548
,555
,563
,573
,586
,587
,584
,569
,557
,535
,515
,500
,497
,495
,493
,497
,497
,498
,498
,497
,500
,499
,496
,500
,497
,493
,481
,481
,489
,505
,510
,507
,512
,512
,539
,598
,687
,550
,228
,458
,504
,513
,521
,524
,533
,539
,544
,548
,552
,564
,568
,570
,563
,549
,544
,525
,507
,495
,491
,489
,496
,492
,492
,494
,494
,494
,492
,494
,495
,489
,495
,485
,477
,483
,505
,508
,512
,509
,508
,528
,597
,699
,575
,214
,450
,497
,511
,518
,519
,524
,530
,533
,539
,547
,554
,563
,564
,556
,545
,535
,519
,502
,492
,484
,485
,487
,486
,488
,489
,490
,489
,493
,492
,490
,493
,490
,485
,477
,475
,489
,503
,505
,506
,511
,511
,562
,654
,664
,346
,345
,484
,511
,519
,527
,531
,538
,543
,549
,557
,567
,576
,582
,581
,574
,567
,553
,537
,525
,517
,513
,515
,515
,518
,519
,520
,522
,519
,518
,516
,517
,515
,512
,500
,502
,516
,536
,531
,531
,533
,536
,583
,658
,660
,389
,353
,506
,531
,541
,548
,551
,553
,563
,564
,575
,581
,586
,594
,588
,578
,564
,549
,532
,515
,506
,504
,501
,504
,505
,501
,503
,502
,500
,498
,498
,493
,490
,475
,475
,482
,499
,504
,505
,504
,505
,529
,592
,670
,532
,219
,456
,499
,511
,518
,523
,527
,531
,536
,543
,552
,561
,570
,570
,561
,549
,537
,518
,499
,488
,481
,483
,482
,484
,483
,481
,482
,481
,482
,481
,480
,476
,473
,460
,460
,479
,490
,492
,493
,495
,496
,548
,617
,618
,341
,320
,470
,497
,508
,515
,518
,521
,527
,532
,543
,551
,564
,571
,569
,559
,545
,531
,512
,495
,487
,481
,488
,487
,490
,490
,489
,493
,492
,492
,493
,490
,493
,484
,475
,478
,496
,508
,511
,512
,513
,518
,576
,655
,611
,273
,392
,495
,520
,527
,531
,537
,542
,548
,552
,562
,571
,584
,590
,587
,577
,567
,548
,526
,511
,505
,500
,503
,503
,504
,507
,505
,508
,506
,510
,508
,507
,510
,505
,505
,493
,492
,496
,516
,519
,522
,521
,522
,541
,594
,672
,556
,230
,464
,511
,528
,533
,537
,542
,545
,550
,556
,565
,576
,588
,592
,583
,574
,562
,541
,520
,508
,497
,497
,494
,499
,498
,498
,500
,499
,500
,498
,501
,501
,501
,501
,503
,504
,504
,501
,499
,495
,488
,488
,507
,517
,516
,518
,520
,526
,580
,662
,585
,245
,426
,502
,524
,529
,538
,542
,544
,547
,551
,559
,574
,584
,590
,590
,580
,570
,550
,531
,509
,500
,498
,496
,494
,495
,496
,498
,499
,499
,498
,495
,497
,497
,497
,497
,496
,499
,498
,501
,502
,503
,503
,505
,506
,502
,503
,498
,492
,493
,508
,519
,520
,519
,522
,533
,584
,656
,577
,247
,434
,503
,517
,529
,533
,539
,543
,547
,550
,558
,566
,575
,585
,583
,576
,563
,549
,529
,509
,501
,495
,494
,492
,491
,493
,492
,493
,495
,496
,494
,496
,497
,500
,496
,502
,503
,503
,501
,504
,506
,506
,505
,511
,507
,506
,502
,497
,499
,517
,522
,522
,527
,526
,547
,598
,667
,567
,241
,468
,516
,530
,538
,540
,546
,549
,551
,557
,564
,578
,586
,594
,591
,579
,566
,545
,523
,506
,496
,490
,492
,490
,492
,493
,493
,495
,495
,495
,495
,493
,496
,496
,494
,499
,498
,498
,499
,500
,502
,502
,501
,505
,502
,504
,502
,502
,496
,491
,496
,508
,519
,518
,521
,519
,535
,589
,661
,568
,235
,447
,499
,513
,522
,528
,530
,533
,536
,541
,550
,558
,579
,576
,576
,568
,553
,533
,513
,496
,484
,482
,478
,480
,480
,484
,485
,487
,487
,488
,492
,490
,492
,490
,494
,497
,496
,494
,500
,500
,500
,501
,500
,504
,506
,499
,498
,492
,489
,499
,510
,514
,517
,514
,518
,548
,608
,664
,542
,269
,479
,509
,520
,532
,532
,534
,538
,543
,550
,558
,566
,576
,581
,575
,571
,551
,537
,519
,501
,492
,491
,489
,490
,488
,492
,492
,495
,492
,493
,492
,490
,498
,489
,486
,493
,491
,491
,490
,491
,487
,496
,488
,480
,484
,477
,480
,487
,497
,492
,498
,497
,507
,562
,654
,620
,176
,176
,185
,250
,251
,261
,272
,282
,294
,430
,524
,538
,559
,571
,577
,573
,568
,554
,539
,521
,507
,502
,514
,514
,509
,508
,509
,514
,508
,519
,522
,514
,531
,527
,528
,541
,539
,546
,535
,533
,533
,535
,552
,557
,553
,553
,555
,563
,619
,713
,657
,281
,458
,535
,560
,562
,567
,573
,573
,580
,582
,591
,604
,619
,616
,614
,603
,591
,568
,542
,531
,518
,512
,516
,513
,519
,517
,520
,524
,517
,518
,524
,519
,517
,518
,516
,517
,517
,503
,500
,499
,517
,525
,524
,521
,524
,532
,595
,670
,573
,236
,435
,511
,529
,548
,702
,678
,682
,680
,683
,682
,691
,693
,699
,690
,673
,652
,623
,599
,555
,434
,442
,438
,432
,434
,438
,440
,445
,443
,445
,560
,578
,572
,580
,575
,572
,559
,561
,556
,570
,567
,562
,562
,559
,570
,625
,698
,582
,238
,475
,523
,534
,537
,539
,543
,546
,549
,554
,562
,574
,591
,592
,584
,575
,558
,533
,512
,492
,486
,484
,483
,484
,484
,484
,486
,484
,486
,484
,486
,485
,488
,484
,482
,476
,469
,469
,486
,499
,501
,499
,503
,506
,550
,610
,618
,407
,309
,472
,508
,517
,520
,518
,406
,413
,447
,471
,436
,455
,466
,467
,461
,425
,272
,250
,232
,218
,218
,228
,241
,248
,266
,270
,278
,285
,298
,314
,322
,326
,336
,342
,340
,345
,369
,395
,396
,419
,425
,429
,463
,517
,575
,430
,188
,418
,468
,484
,495
,505
,511
,516
,531
,541
,554
,571
,585
,595
,591
,585
,565
,545
,529
,520
,514
,516
,520
,526
,530
,533
,537
,540
,544
,546
,547
,548
,550
,548
,543
,533
,531
,536
,557
,565
,563
,571
,594
,842
,844
,845
,844
,843
,841
,843
,843
,843
,842
,842
,840
,836
,812
,800
,792
,796
,781
,765
,739
,710
,667
,631
,600
,581
,566
,554
,541
,533
,522
,517
,509
,501
,497
,487
,482
,476
,472
,466
,463
,458
,454
,444
,439
,423
,418
,424
,438
,437
,437
,436
,435
,462
,506
,548
,400
,178
,379
,427
,439
,445
,450
,442
,179
,184
,180
,183
,193
,207
,224
,228
,231
,222
,205
,200
,197
,200
,208
,219
,237
,246
,264
,276
,295
,310
,322
,334
,347
,360
,372
,383
,394
,404
,414
,424
,433
,445
,457
,463
,473
,476
,483
,491
,496
,503
,508
,516
,516
,515
,520
,516
,521
,540
,548
,549
,553
,557
,566
,626
,699
,632
,321
,475
,558
,572
,581
,586
,587
,594
,614
,845
,