508
,509
,509
,510
,507
,502
,489
,485
,497
,513
,522
,521
,520
,522
,564
,607
,567
,305
,372
,502
,538
,546
,546
,551
,554
,559
,570
,579
,592
,601
,612
,603
,593
,562
,534
,516
,508
,505
,503
,501
,505
,505
,507
,508
,507
,508
,508
,509
,510
,511
,510
,514
,513
,513
,513
,515
,514
,515
,509
,507
,496
,497
,516
,528
,528
,530
,531
,544
,602
,643
,445
,294
,489
,534
,536
,367
,256
,254
,321
,653
,622
,637
,651
,661
,655
,647
,618
,587
,563
,549
,544
,542
,540
,542
,539
,538
,539
,537
,538
,533
,535
,533
,534
,535
,532
,533
,532
,533
,533
,533
,533
,535
,536
,533
,533
,535
,528
,520
,515
,521
,539
,539
,542
,540
,543
,580
,632
,616
,364
,402
,515
,541
,550
,556
,562
,562
,571
,576
,586
,601
,611
,620
,612
,599
,571
,542
,525
,509
,510
,509
,508
,508
,509
,509
,506
,503
,508
,507
,504
,504
,504
,510
,506
,511
,511
,511
,512
,515
,517
,521
,519
,521
,520
,524
,523
,520
,514
,513
,524
,538
,536
,540
,540
,543
,580
,620
,606
,368
,419
,521
,552
,559
,565
,566
,572
,574
,584
,591
,605
,619
,628
,621
,606
,582
,556
,537
,526
,525
,520
,521
,519
,521
,522
,524
,525
,523
,526
,525
,526
,524
,524
,526
,524
,526
,523
,526
,526
,526
,526
,526
,516
,512
,505
,514
,531
,532
,531
,531
,530
,555
,597
,572
,347
,352
,502
,542
,547
,552
,555
,556
,563
,564
,572
,583
,598
,608
,601
,596
,566
,536
,514
,504
,497
,489
,491
,490
,484
,486
,485
,480
,484
,479
,479
,484
,484
,486
,480
,470
,469
,471
,474
,478
,474
,484
,485
,487
,485
,489
,265
,233
,233
,234
,245
,256
,268
,353
,378
,197
,182
,183
,380
,400
,430
,447
,474
,486
,518
,524
,529
,542
,555
,555
,558
,550
,524
,503
,501
,496
,499
,504
,504
,513
,517
,512
,526
,527
,531
,533
,538
,544
,542
,546
,553
,551
,556
,559
,559
,563
,566
,555
,550
,543
,548
,563
,573
,573
,573
,572
,577
,636
,667
,542
,310
,715
,854
,856
,856
,856
,856
,856
,855
,856
,856
,855
,855
,855
,855
,855
,853
,841
,748
,722
,699
,675
,653
,634
,621
,599
,589
,570
,561
,546
,537
,518
,512
,506
,494
,487
,479
,469
,339
,469
,454
,467
,479
,474
,466
,468
,469
,525
,511
,360
,184
,385
,434
,450
,438
,183
,182
,183
,183
,182
,183
,182
,182
,186
,196
,186
,182
,184
,183
,183
,194
,204
,225
,242
,254
,274
,296
,310
,328
,341
,354
,370
,385
,398
,409
,417
,428
,420
,430
,451
,483
,499
,506
,513
,526
,570
,606
,536
,271
,412
,539
,589
,597
,612
,613
,619
,630
,636
,650
,663
,681
,688
,688
,674
,643
,620
,598
,591
,586
,584
,583
,585
,584
,586
,584
,586
,586
,588
,582
,583
,579
,580
,579
,562
,568
,548
,539
,569
,576
,574
,576
,574
,573
,637
,652
,454
,261
,493
,557
,573
,574
,578
,579
,579
,584
,587
,597
,604
,622
,617
,609
,585
,549
,530
,516
,509
,508
,502
,505
,501
,501
,502
,504
,502
,502
,500
,501
,498
,502
,500
,492
,490
,474
,471
,492
,511
,509
,510
,513
,511
,571
,605
,462
,198
,429
,495
,514
,523
,528
,532
,535
,541
,549
,561
,572
,587
,584
,578
,558
,530
,504
,489
,483
,486
,483
,502
,715
,857
,857
,857
,857
,857
,857
,856
,857
,857
,856
,746
,363
,338
,284
,255
,269
,269
,269
,268
,269
,275
,354
,382
,184
,182
,183
,287
,321
,337
,345
,352
,368
,385
,400
,425
,438
,464
,473
,851
,856
,857
,857
,856
,856
,856
,856
,855
,854
,853
,849
,809
,784
,764
,745
,723
,703
,684
,669
,651
,635
,609
,594
,569
,559
,568
,571
,554
,550
,535
,548
,597
,583
,183
,182
,183
,182
,183
,183
,183
,184
,184
,183
,183
,184
,184
,184
,206
,209
,195
,191
,184
,188
,194
,206
,227
,246
,263
,286
,301
,314
,333
,342
,357
,365
,384
,397
,406
,420
,418
,423
,424
,428
,463
,481
,490
,494
,509
,537
,627
,699
,484
,362
,547
,601
,614
,618
,621
,628
,639
,651
,857
,858
,858
,858
,858
,858
,858
,858
,857
,858
,857
,857
,857
,856
,855
,855
,851
,825
,853
,856
,857
,858
,858
,858
,858
,858
,858
,858
,858
,858
,858
,858
,858
,858
,858
,858
,858
,858
,858
,858
,858
,858
,858
,858
,857
,857
,856
,855
,855
,815
,602
,437
,303
,188
,183
,184
,183
,184
,184
,184
,184
,184
,184
,184
,185
,184
,184
,184
,282
,266
,227
,184
,184
,184
,185
,184
,184
,184
,184
,184
,185
,185
,184
,184
,185
,185
,185
,185
,185
,185
,185
,185
,185
,186
,185
,186
,185
,185
,186
,185
,185
,186
,186
,186
,186
,186
,186
,354
,524
,487
,469
,440
,427
,411
,421
,443
,462
,439
,186
,186
,185
,186
,186
,186
,186
,253
,292
,343
,450
,547
,532
,266
,348
,514
,569
,590
,611
,635
,658
,679
,729
,862
,861
,862
,862
,862
,862
,862
,862
,862
,862
,862
,861
,861
,861
,861
,860
,859
,859
,857
,855
,853
,850
,850
,834
,822
,815
,812
,801
,798
,787
,765
,404
,736
,736
,387
,378
,356
,342
,341
,387
,434
,402
,186
,186
,857
,855
,853
,845
,800
,417
,400
,376
,368
,370
,715
,858
,858
,858
,856
,827
,771
,737
,710
,695
,679
,666
,654
,647
,635
,622
,613
,603
,595
,585
,577
,565
,554
,546
,538
,531
,528
,518
,509
,490
,482
,481
,502
,500
,502
,497
,494
,495
,548
,588
,482
,220
,323
,445
,477
,481
,485
,488
,492
,496
,495
,503
,515
,527
,541
,541
,535
,523
,494
,467
,450
,440
,437
,437
,437
,441
,442
,446
,446
,450
,452
,459
,463
,464
,471
,470
,473
,473
,474
,480
,479
,479
,479
,479
,477
,473
,471
,458
,461
,482
,499
,500
,502
,505
,508
,547
,595
,584
,377
,272
,468
,527
,540
,544
,543
,549
,553
,559
,567
,577
,589
,602
,612
,609
,602
,581
,555
,534
,523
,514
,512
,510
,513
,513
,513
,509
,508
,512
,512
,510
,514
,515
,517
,516
,522
,528
,527
,531
,532
,531
,532
,529
,529
,531
,522
,522
,514
,508
,518
,539
,539
,538
,536
,536
,544
,610
,654
,479
,228
,438
,525
,551
,555
,560
,566
,571
,577
,581
,590
,604
,615
,625
,629
,620
,605
,579
,552
,534
,522
,517
,517
,520
,523
,520
,522
,524
,528
,528
,529
,526
,529
,525
,526
,529
,530
,530
,527
,532
,529
,531
,529
,532
,531
,534
,528
,526
,513
,514
,527
,535
,535
,530
,536
,534
,561
,620
,653
,473
,262
,474
,531
,540
,549
,549
,552
,553
,562
,540
,556
,549
,576
,577
,401
,605
,560
,557
,530
,518
,498
,505
,494
,503
,496
,501
,488
,504
,505
,507
,509
,498
,501
,497
,500
,504
,504
,511
,510
,185
,185
,186
,185
,274
,537
,311
,522
,186
,185
,591
,711
,681
,675
,713
,761
,775
,546
,369
,577
,630
,638
,637
,635
,631
,630
,624
,623
,632
,302
,661
,705
,701
,666
,237
,186
,185
,725
,660
,663
,659
,659
,613
,665
,650
,651
,643
,635
,629
,619
,615
,612
,606
,604
,600
,596
,594
,592
,589
,584
,577
,571
,556
,554
,567
,573
,567
,568
,561
,565
,625
,680
,594
,304
,392
,522
,553
,561
,564
,568
,569
,572
,577
,584
,594
,607
,620
,624
,619
,603
,574
,549
,530
,517
,512
,515
,514
,517
,521
,522
,523
,523
,526
,525
,531
,531
,530
,533
,535
,535
,537
,541
,541
,545
,548
,546
,548
,540
,541
,302
,321
,185
,186
,185
,448
,186
,233
,287
,712
,538
,734
,772
,774
,766
,759
,750
,743
,735
,728
,695
,704
,713
,542
,185
,185
,186
,186
,185
,186
,186
,186
,186
,186
,186
,407
,860
,860
,860
,859
,727
,466
,839
,625
,859
,861
,861
,862
,862
,862
,862
,862
,861
,861
,806
,533
,493
,503
,511
,547
,629
,734
,638
,320
,526
,640
,700
,742
,771
,787
,807
,824
,830
,826
,623
,433
,858
,858
,853
,817
,770
,732
,702
,438
,294
,720
,442
,682
,615
,527
,317
,306
,186
,186
,186
,186
,560
,704
,203
,186
,186
,186
,301
,400
,446
,450
,458
,490
,425
,802
,629
,684
,209
,471
,270
,659
,734
,762
,751
,542
,414
,781
,752
,753
,755
,758
,766
,765
,757
,745
,719
,695
,666
,655
,632
,629
,619
,612
,609
,606
,598
,595
,587
,585
,574
,567
,562
,550
,542
,525
,512
,517
,532
,531
,531
,528
,527
,529
,589
,617
,494
,231
,383
,494
,521
,527
,371
,200
,208
,208
,224
,249
,275
,303
,332
,343
,339
,339
,324
,312
,316
,313
,324
,337
,356
,365
,370
,379
,374
,333
,429
,431
,442
,445
,448
,454
,455
,459
,452
,455
,484
,507
,514
,519
,524
,529
,550
,610
,620
,397
,249
,473
,550
,567
,573
,581
,582
,590
,596
,601
,613
,626
,638
,649
,646
,637
,615
,588
,567
,555
,549
,548
,547
,548
,545
,550
,362
,186
,184
,390
,547
,194
,674
,621
,624
,622
,622
,533
,556
,577
,581
,620
,602
,591
,568
,611
,619
,621
,805
,805
,826
,858
,860
,860
,813
,665
,825
,845
,844
,833
,817
,810
,798
,787
,783
,703
,534
,766
,653
,447
,521
,722
,486
,407
,425
,499
,451
,384
,363
,315
,343
,332
,397
,392
,340
,376
,364
,355
,398
,416
,441
,400
,386
,394
,396
,423
,423
,542
,486
,498
,474
,462
,473
,524
,565
,536
,769
,683
,808
,605
,334
,186
,384
,534
,454
,464
,615
,782
,590
,494
,494
,714
,826
,842
,587
,520
,698
,755
,737
,717
,665
,408
,372
,360
,366
,368
,675
,644
,445
,414
,375
,373
,365
,339
,387
,410
,417
,421
,419
,430
,439
,454
,462
,582
,784
,791
,793
,777
,763
,747
,748
,761
,747
,736
,728
,739
,580
,714
,499
,185
,615
,693
,503
,395
,390
,405
,614
,724
,728
,757
,544
,466
,552
,743
,730
,705
,681
,661
,649
,637
,634
,624
,613
,609
,603
,592
,585
,579
,580
,572
,564
,321
,552
,548
,554
,550
,552
,551
,546
,546
,538
,538
,534
,531
,461
,194
,187
,189
,197
,222
,515
,567
,579
,311
,318
,378
,377
,184
,185
,231
,340
,351
,369
,387
,406
,426
,441
,462
,479
,512
,527
,529
,522
,511
,491
,488
,489
,493
,497
,508
,517
,521
,530
,535
,539
,547
,552
,558
,557
,564
,569
,570
,576
,582
,576
,583
,570
,574
,574
,575
,575
,571
,576
,565
,565
,560
,569
,572
,567
,562
,553
,556
,601
,654
,544
,188
,382
,441
,449
,460
,467
,476
,487
,509
,528
,550
,577
,594
,602
,594
,570
,523
,472
,396
,310
,212
,185
,184
,185
,185
,184
,186
,185
,184
,185
,186
,185
,185
,185
,186
,186
,185
,186
,186
,186
,186
,185
,185
,185
,186
,185
,185
,185
,258
,311
,343
,380
,412
,444
,526
,615
,537
,248
,478
,568
,609
,631
,655
,673
,692
,714
,733
,746
,772
,793
,806
,803
,796
,767
,750
,738
,736
,739
,744
,746
,749
,750
,752
,751
,756
,750
,750
,749
,746
,745
,747
,743
,743
,742
,736
,737
,734
,726
,724
,720
,713
,706
,698
,691
,691
,702
,697
,692
,686
,686
,696
,754
,776
,567
,435
,619
,658
,661
,665
,660
,662
,665
,667
,672
,678
,690
,700
,695
,680
,652
,618
,589
,575
,564
,566
,561
,560
,557
,556
,555
,552
,557
,556
,550
,552
,543
,546
,539
,542
,544
,541
,542
,541
,536
,539
,532
,529
,527
,523
,512
,513
,509
,514
,524
,518
,520
,517
,518
,568
,614
,548
,245
,408
,502
,523
,531
,538
,540
,547
,557
,563
,577
,588
,608
,614
,613
,594
,567
,542
,530
,521
,518
,518
,517
,522
,523
,268
,198
,186
,185
,186
,190
,192
,197
,208
,222
,241
,252
,264
,281
,295
,310
,328
,338
,351
,360
,378
,386
,416
,423
,431
,443
,453
,472
,545
,631
,479
,234
,460
,513
,527
,550
,543
,564
,579
,579
,597
,608
,625
,634
,633
,621
,602
,577
,559
,549
,542
,539
,541
,543
,548
,545
,554
,557
,557
,566
,560
,565
,569
,565
,569
,569
,568
,564
,563
,560
,561
,568
,562
,556
,558
,570
,573
,568
,567
,568
,569
,617
,772
,794
,306
,487
,538
,549
,556
,559
,560
,558
,564
,567
,581
,595
,596
,611
,594
,595
,562
,547
,523
,522
,524
,524
,524
,526
,530
,530
,536
,544
,549
,552
,551
,552
,554
,547
,548
,549
,571
,581
,585
,590
,591
,599
,652
,763
,743
,315
,496
,565
,583
,590
,595
,594
,861
,861
,861
,861
,858
,623
,599
,561
,519
,478
,439
,428
,500
,520
,429
,419
,421
,420
,422
,423
,425
,426
,482
,861
,860
,503
,860
,861
,861
,861
,861
,861
,860
,859
,858
,858
,858
,856
,457
,632
,691
,694
,685
,665
,650
,635
,617
,598
,594
,594
,595
,584
,563
,530
,487
,457
,433
,414
,409
,396
,394
,384
,381
,377
,374
,374
,368
,368
,356
,360
,338
,336
,352
,365
,372
,369
,372
,372
,421
,479
,405
,185
,185
,376
,393
,403
,410
,413
,421
,429
,443
,455
,472
,489
,493
,492
,473
,448
,422
,412
,410
,411
,416
,418
,423
,426
,426
,431
,434
,441
,439
,447
,450
,451
,453
,451
,452
,442
,444
,463
,478
,482
,481
,487
,490
,541
,613
,560
,227
,394
,492
,508
,515
,521
,526
,535
,542
,551
,562
,579
,592
,595
,590
,576
,546
,523
,506
,498
,497
,499
,498
,502
,501
,501
,505
,506
,510
,511
,510
,513
,514
,515
,521
,520
,518
,520
,523
,523
,527
,517
,518
,506
,509
,522
,531
,532
,536
,537
,537
,591
,654
,586
,258
,440
,523
,541
,553
,558
,561
,567
,571
,577
,591
,606
,616
,622
,616
,599
,571
,545
,528
,522
,516
,516
,518
,519
,520
,524
,525
,524
,522
,526
,529
,528
,528
,528
,529
,531
,528
,527
,533
,532
,533
,531
,530
,526
,521
,522
,539
,542
,546
,541
,544
,544
,610
,680
,507
,253
,485
,538
,545
,552
,561
,565
,568
,575
,584
,593
,610
,621
,620
,613
,588
,561
,532
,523
,514
,512
,514
,514
,513
,515
,515
,517
,519
,518
,517
,520
,520
,519
,521
,524
,523
,524
,526
,528
,523
,525
,516
,516
,524
,541
,542
,542
,544
,546
,592
,652
,614
,303
,415
,526
,550
,555
,556
,561
,565
,570
,580
,589
,603
,618
,619
,611
,594
,560
,534
,512
,505
,500
,500
,499
,498
,501
,498
,499
,501
,502
,501
,499
,502
,504
,507
,510
,513
,513
,516
,514
,515
,511
,504
,502
,506
,525
,530
,533
,535
,532
,560
,614
,651
,414
,330
,508
,543
,552
,559
,562
,572
,575
,582
,595
,607
,623
,631
,628
,615
,587
,555
,536
,527
,522
,521
,525
,523
,527
,534
,528
,530
,531
,534
,536
,537
,537
,537
,538
,541
,543
,542
,542
,544
,547
,545
,538
,538
,529
,532
,549
,556
,553
,556
,552
,563
,629
,679
,473
,282
,505
,555
,564
,570
,575
,576
,585
,591
,600
,607
,624
,631
,631
,616
,598
,563
,541
,524
,517
,518
,519
,518
,520
,520
,521
,525
,521
,524
,522
,520
,523
,523
,523
,524
,525
,526
,525
,525
,517
,519
,510
,509
,522
,538
,534
,539
,535
,547
,611
,677
,500
,243
,484
,540
,547
,554
,560
,561
,570
,572
,581
,594
,607
,611
,615
,600
,577
,545
,527
,511
,506
,503
,504
,507
,506
,510
,512
,509
,512
,516
,513
,512
,518
,517
,516
,515
,517
,518
,520
,513
,513
,505
,504
,521
,530
,533
,532
,533
,538
,606
,693
,532
,231
,475
,526
,540
,545
,553
,557
,562
,570
,581
,595
,603
,614
,610
,597
,575
,546
,525
,512
,506
,508
,505
,509
,511
,511
,514
,511
,512
,515
,514
,511
,512
,513
,514
,515
,517
,508
,510
,502
,502
,522
,530
,529
,535
,531
,545
,613
,689
,483
,266
,487
,534
,546
,555
,559
,563
,567
,577
,585
,597
,613
,620
,612
,598
,573
,543
,525
,515
,506
,513
,513
,511
,514
,516
,514
,515
,515
,516
,515
,518
,517
,520
,518
,520
,519
,514
,509
,502
,503
,522
,529
,533
,530
,532
,548
,612
,674
,443
,284
,493
,537
,547
,555
,558
,562
,567
,577
,587
,602
,613
,622
,614
,601
,573
,548
,524
,514
,510
,512
,511
,513
,516
,516
,519
,513
,518
,517
,518
,516
,518
,517
,520
,518
,521
,512
,508
,505
,509
,527
,533
,535
,535
,535
,561
,628
,657
,383
,348
,506
,546
,555
,556
,563
,564
,573
,580
,593
,605
,618
,623
,616
,599
,569
,544
,525
,512
,511
,512
,513
,513
,514
,514
,516
,515
,517
,516
,516
,519
,517
,520
,521
,521
,521
,522
,521
,516
,510
,506
,515
,533
,533
,535
,536
,537
,574
,635
,636
,341
,388
,515
,547
,552
,558
,562
,568
,575
,584
,591
,607
,620
,626
,618
,600
,574
,545
,523
,519
,513
,515
,515
,516
,517
,517
,518
,519
,517
,519
,518
,519
,519
,520
,523
,524
,519
,520
,522
,524
,515
,511
,504
,502
,521
,530
,532
,530
,529
,545
,609
,641
,424
,276
,488
,539
,549
,553
,560
,563
,569
,579
,584
,595
,613
,622
,616
,603
,576
,544
,525
,509
,510
,504
,507
,509
,510
,509
,510
,510
,508
,508
,507
,506
,508
,508
,507
,506
,508
,508
,512
,515
,514
,516
,519
,510
,511
,503
,505
,519
,527
,530
,531
,530
,535
,591
,647
,542
,238
,441
,529
,543
,554
,555
,557
,566
,570
,578
,595
,606
,618
,617
,610
,589
,561
,539
,520
,513
,511
,512
,513
,512
,513
,516
,514
,514
,520
,516
,518
,517
,521
,519
,522
,521
,525
,523
,526
,527
,530
,520
,523
,517
,518
,527
,539
,536
,543
,541
,547
,609
,709
,584
,241
,478
,534
,548
,553
,558
,563
,568
,577
,585
,597
,612
,619
,619
,606
,584
,554
,534
,520
,513
,512
,512
,517
,515
,515
,514
,516
,515
,517
,513
,517
,514
,517
,521
,519
,521
,519
,513
,509
,505
,507
,525
,531
,530
,528
,534
,555
,624
,702
,456
,321
,499
,531
,539
,543
,549
,554
,560
,568
,580
,592
,607
,614
,606
,593
,563
,537
,517
,507
,503
,503
,505
,507
,508
,510
,514
,510
,515
,512
,516
,512
,513
,515
,514
,513
,511
,502
,502
,503
,520
,527
,527
,526
,528
,546
,608
,680
,446
,310
,496
,528
,541
,543
,550
,557
,561
,568
,580
,595
,609
,615
,613
,595
,567
,541
,519
,512
,508
,507
,515
,514
,520
,520
,522
,526
,525
,527
,529
,533
,531
,536
,539
,538
,540
,538
,538
,528
,529
,545
,558
,558
,560
,564
,566
,629
,718
,604
,264
,496
,558
,573
,578
,582
,586
,592
,600
,611
,618
,634
,644
,641
,628
,605
,570
,549
,529
,527
,525
,525
,520
,523
,524
,521
,522
,523
,519
,520
,518
,519
,518
,517
,518
,517
,514
,517
,508
,506
,497
,496
,513
,522
,521
,523
,520
,528
,589
,675
,519
,227
,467
,518
,529
,531
,540
,543
,546
,555
,562
,575
,590
,598
,597
,585
,560
,531
,507
,493
,490
,489
,489
,489
,494
,493
,494
,494
,497
,496
,498
,496
,499
,499
,499
,499
,500
,501
,505
,500
,497
,492
,488
,492
,509
,513
,517
,516
,519
,538
,602
,667
,448
,298
,485
,522
,531
,534
,539
,545
,551
,561
,573
,584
,597
,607
,600
,588
,557
,532
,506
,502
,495
,491
,498
,498
,498
,501
,507
,503
,506
,503
,507
,509
,509
,511
,509
,516
,516
,516
,517
,520
,518
,520
,518
,523
,521
,516
,509
,509
,521
,531
,534
,534
,532
,539
,577
,635
,625
,356
,395
,513
,539
,545
,554
,557
,563
,567
,575
,587
,597
,616
,618
,611
,593
,567
,541
,525
,515
,509
,507
,509
,513
,512
,514
,515
,519
,518
,518
,518
,519
,521
,521
,521
,524
,523
,524
,529
,526
,521
,528
,524
,525
,522
,516
,516
,521
,534
,537
,539
,538
,541
,572
,628
,632
,368
,372
,510
,543
,544
,553
,556
,562
,567
,573
,591
,595
,614
,618
,613
,600
,570
,544
,522
,512
,507
,507
,505
,505
,507
,508
,507
,511
,510
,509
,512
,512
,511
,511
,513
,513
,514
,515
,513
,514
,515
,516
,515
,519
,515
,514
,504
,507
,518
,531
,529
,529
,527
,531
,575
,642
,619
,302
,402
,510
,533
,542
,547
,549
,558
,562
,570
,580
,596
,609
,616
,610
,591
,568
,538
,520
,512
,508
,509
,508
,511
,513
,513
,516
,512
,513
,515
,517
,514
,516
,516
,515
,519
,520
,523
,520
,523
,521
,523
,526
,518
,517
,513
,509
,530
,532
,531
,536
,533
,540
,590
,672
,575
,241
,456
,526
,548
,552
,559
,563
,566
,573
,584
,592
,611
,622
,622
,616
,590
,563
,534
,518
,514
,511
,509
,510
,514
,514
,517
,516
,518
,518
,520
,517
,517
,521
,521
,521
,520
,523
,523
,524
,526
,525
,526
,530
,527
,523
,521
,515
,519
,537
,537
,539
,540
,541
,555
,616
,679
,496
,303
,502
,544
,552
,555
,564
,566
,573
,579
,593
,599
,620
,629
,630
,612
,594
,563
,538
,528
,520
,518
,516
,517
,522
,521
,517
,518
,514
,517
,518
,521
,521
,520
,525
,523
,525
,528
,526
,528
,527
,530
,534
,522
,519
,515
,520
,532
,536
,537
,535
,536
,539
,600
,646
,508
,224
,455
,527
,542
,549
,554
,561
,564
,571
,577
,590
,603
,620
,620
,609
,592
,556
,531
,514
,506
,505
,504
,504
,507
,505
,508
,509
,508
,512
,513
,510
,511
,513
,519
,517
,519
,522
,516
,522
,521
,525
,523
,519
,517
,508
,512
,525
,534
,532
,536
,534
,535
,582
,649
,579
,258
,425
,517
,537
,541
,551
,550
,557
,565
,571
,583
,599
,616
,616
,610
,593
,560
,536
,518
,509
,507
,507
,510
,510
,511
,513
,517
,516
,518
,517
,519
,520
,519
,521
,521
,522
,527
,525
,526
,529
,527
,527
,529
,525
,518
,519
,523
,539
,538
,540
,540
,542
,577
,640
,645
,373
,379
,513
,539
,548
,552
,554
,561
,567
,571
,582
,597
,611
,616
,609
,593
,562
,535
,516
,510
,505
,503
,508
,507
,507
,511
,509
,509
,512
,509
,509
,509
,509
,512
,510
,512
,510
,513
,514
,514
,507
,503
,502
,503
,522
,527
,528
,529
,530
,543
,604
,691
,512
,269
,486
,530
,541
,546
,549
,556
,561
,565
,579
,590
,607
,619
,615
,605
,576
,545
,523
,512
,507
,506
,509
,508
,511
,511
,513
,513
,515
,515
,516
,515
,519
,517
,519
,519
,523
,521
,523
,519
,520
,507
,510
,523
,536
,534
,536
,538
,541
,595
,678
,613
,255
,453
,529
,549
,553
,559
,563
,568
,575
,585
,597
,613
,627
,628
,626
,600
,573
,545
,524
,517
,513
,512
,513
,513
,516
,514
,519
,519
,520
,518
,522
,523
,520
,523
,524
,526
,525
,529
,530
,525
,524
,520
,511
,516
,530
,534
,536
,538
,536
,560
,621
,637
,397
,328
,506
,538
,544
,549
,550
,558
,562
,574
,580
,589
,606
,609
,602
,593
,560
,529
,510
,497
,492
,496
,493
,492
,497
,496
,495
,498
,499
,499
,497
,502
,499
,503
,507
,509
,509
,515
,506
,505
,497
,500
,514
,526
,520
,530
,521
,524
,569
,677
,546
,203
,433
,489
,494
,505
,505
,503
,510
,524
,533
,546
,564
,576
,578
,570
,558
,541
,526
,516
,515
,516
,524
,529
,531
,532
,534
,535
,540
,538
,543
,542
,543
,545
,544
,539
,536
,539
,554
,561
,564
,564
,559
,569
,632
,747
,620
,278
,506
,553
,563
,572
,568
,581
,586
,588
,582
,588
,599
,594
,590
,573
,541
,520
,493
,490
,483
,480
,471
,479
,477
,484
,484
,490
,490
,494
,494
,493
,497
,494
,498
,496
,492
,489
,489
,513
,524
,518
,518
,516
,528
,599
,694
,505
,231
,466
,519
,525
,535
,540
,543
,554
,559
,568
,581
,601
,613
,614
,597
,584
,551
,536
,528
,527
,528
,529
,536
,533
,536
,533
,538
,532
,526
,524
,523
,516
,520
,525
,514
,518
,506
,507
,516
,528
,528
,528
,533
,537
,557
,636
,671
,359
,352
,506
,539
,553
,558
,562
,571
,574
,580
,590
,603
,616
,614
,610
,593
,562
,543
,522
,511
,505
,504
,503
,502
,505
,504
,507
,504
,502
,499
,499
,498
,497
,499
,495
,495
,492
,498
,493
,494
,487
,485
,468
,479
,484
,492
,489
,493
,495
,526
,594
,658
,395
,298
,483
,517
,528
,540
,546
,549
,556
,565
,579
,587
,602
,614
,608
,595
,577
,554
,539
,534
,536
,536
,534
,539
,539
,547
,550
,550
,550
,548
,547
,547
,542
,542
,539
,538
,537
,536
,539
,535
,536
,530
,525
,514
,514
,535
,542
,544
,551
,554
,570
,629
,723
,549
,290
,513
,554
,564
,573
,580
,586
,592
,602
,616
,627
,641
,656
,645
,635
,608
,577
,554
,540
,534
,530
,530
,530
,528
,527
,523
,526
,529
,522
,525
,520
,521
,522
,519
,520
,522
,523
,520
,523
,521
,515
,510
,503
,509
,527
,528
,527
,527
,526
,566
,619
,594
,309
,367
,502
,528
,536
,542
,544
,547
,555
,567
,575
,592
,608
,611
,611
,595
,568
,543
,523
,515
,514
,516
,518
,518
,520
,523
,524
,528
,528
,528
,531
,530
,534
,531
,535
,537
,540
,540
,539
,544
,542
,534
,536
,523
,523
,537
,549
,548
,547
,547
,548
,613
,695
,566
,240
,475
,538
,552
,557
,559
,559
,568
,571
,577
,588
,600
,610
,610
,599
,575
,546
,519
,502
,493
,492
,493
,491
,490
,493
,490
,494
,488
,490
,490
,486
,486
,485
,487
,489
,490
,487
,490
,491
,491
,485
,486
,476
,475
,491
,502
,506
,506
,505
,507
,558
,627
,559
,235
,399
,491
,510
,519
,524
,527
,536
,541
,545
,560
,571
,586
,587
,579
,563
,532
,511
,492
,492
,485
,484
,488
,488
,490
,494
,497
,501
,506
,515
,518
,513
,520
,514
,512
,514
,518
,506
,503
,490
,487
,505
,515
,521
,518
,521
,523
,572
,608
,538
,263
,408
,504
,531
,540
,543
,543
,549
,553
,558
,570
,585
,596
,603
,591
,572
,540
,509
,496
,487
,485
,481
,483
,481
,484
,485
,489
,491
,491
,494
,500
,501
,501
,508
,509
,508
,512
,511
,507
,508
,501
,498
,507
,523
,533
,535
,537
,539
,579
,627
,588
,319
,394
,520
,548
,551
,562
,562
,565
,570
,571
,581
,591
,612
,616
,600
,591
,560
,537
,515
,507
,509
,507
,497
,493
,498
,495
,509
,517
,508
,511
,513
,513
,509
,505
,508
,504
,497
,495
,497
,487
,486
,473
,490
,504
,512
,512
,512
,518
,545
,603
,633
,377
,333
,493
,537
,541
,549
,557
,559
,570
,579
,581
,599
,611
,625
,619
,606
,580
,554
,541
,523
,522
,514
,517
,516
,515
,522
,525
,524
,527
,530
,522
,515
,516
,512
,518
,513
,514
,512
,510
,509
,500
,512
,526
,529
,535
,539
,541
,565
,630
,677
,401
,336
,513
,566
,576
,583
,592
,589
,595
,599
,609
,623
,632
,637
,630
,618
,585
,559
,539
,533
,521
,531
,526
,536
,529
,531
,531
,536
,531
,536
,530
,533
,531
,531
,530
,531
,541
,532
,534
,524
,527
,536
,551
,543
,550
,551
,550
,612
,725
,627
,251
,477
,540
,552
,556
,560
,560
,568
,566
,579
,592
,600
,612
,608
,599
,576
,548
,529
,515
,509
,507
,508
,510
,514
,511
,511
,515
,515
,514
,515
,515
,516
,519
,519
,523
,517
,517
,506
,505
,517
,536
,534
,538
,538
,548
,605
,685
,656
,282
,448
,528
,553
,561
,563
,568
,570
,576
,584
,596
,610
,624
,619
,611
,589
,549
,534
,517
,507
,505
,504
,505
,504
,509
,508
,508
,509
,509
,506
,506
,505
,508
,510
,504
,506
,508
,504
,501
,494
,486
,499
,513
,515
,515
,516
,518
,552
,620
,640
,357
,357
,494
,520
,529
,533
,536
,537
,549
,553
,568
,580
,594
,599
,596
,580
,554
,524
,512
,498
,498
,498
,497
,498
,502
,504
,502
,505
,510
,508
,508
,505
,506
,512
,505
,506
,510
,509
,509
,509
,510
,511
,511
,507
,504
,515
,533
,531
,537
,534
,536
,578
,666
,651
,306
,411
,507
,531
,531
,538
,546
,548
,550
,564
,563
,588
,589
,594
,585
,566
,543
,524
,513
,504
,496
,497
,502
,502
,508
,510
,504
,510
,515
,509
,510
,508
,500
,505
,508
,508
,515
,511
,514
,523
,520
,525
,524
,515
,523
,506
,513
,528
,536
,530
,532
,530
,538
,587
,700
,663
,254
,462
,517
,531
,536
,545
,537
,534
,545
,553
,563
,581
,587
,591
,581
,566
,545
,532
,508
,507
,505
,508
,512
,505
,512
,510
,514
,514
,513
,512
,516
,507
,504
,505
,502
,498
,496
,496
,498
,501
,504
,509
,504
,505
,503
,504
,499
,500
,515
,529
,530
,533
,539
,554
,614
,747
,623
,298
,501
,543
,543
,548
,545
,553
,555
,301
,230
,218
,226
,237
,705
,665
,654
,619
,461
,182
,