520
,541
,548
,544
,545
,548
,599
,668
,608
,199
,447
,535
,559
,565
,569
,570
,576
,583
,591
,604
,618
,626
,618
,603
,581
,548
,533
,519
,513
,516
,511
,515
,513
,513
,515
,514
,512
,515
,514
,510
,513
,511
,514
,510
,506
,505
,493
,491
,511
,524
,523
,522
,524
,540
,615
,663
,340
,275
,499
,534
,540
,549
,551
,554
,560
,574
,581
,596
,608
,609
,600
,577
,549
,524
,508
,504
,507
,499
,503
,501
,509
,505
,508
,506
,511
,509
,513
,510
,517
,515
,516
,523
,516
,517
,509
,504
,535
,540
,544
,543
,547
,571
,645
,685
,318
,346
,531
,566
,581
,586
,594
,603
,613
,634
,638
,653
,675
,677
,667
,652
,399
,563
,542
,546
,543
,542
,519
,617
,526
,545
,542
,555
,571
,586
,592
,604
,605
,607
,597
,599
,581
,576
,560
,559
,572
,576
,558
,539
,523
,544
,597
,546
,652
,838
,863
,864
,864
,864
,864
,864
,863
,862
,855
,711
,631
,446
,188
,188
,188
,188
,188
,188
,188
,187
,188
,187
,187
,188
,188
,187
,188
,188
,188
,187
,188
,188
,187
,187
,187
,188
,188
,187
,187
,188
,188
,188
,187
,188
,188
,187
,188
,445
,595
,698
,727
,728
,795
,822
,844
,853
,857
,861
,863
,863
,863
,863
,862
,747
,757
,861
,863
,863
,864
,864
,865
,865
,864
,865
,864
,865
,865
,864
,865
,865
,865
,865
,865
,865
,865
,865
,865
,865
,865
,865
,865
,864
,864
,865
,865
,864
,865
,864
,865
,865
,864
,864
,865
,864
,864
,864
,864
,864
,864
,864
,864
,865
,864
,864
,864
,864
,864
,864
,864
,863
,863
,864
,863
,863
,863
,860
,849
,794
,781
,767
,747
,705
,702
,711
,792
,786
,520
,217
,529
,692
,751
,698
,643
,535
,580
,264
,865
,865
,865
,865
,865
,865
,865
,865
,865
,865
,865
,865
,865
,865
,865
,864
,865
,865
,865
,865
,865
,865
,865
,865
,865
,865
,865
,865
,865
,865
,865
,865
,865
,865
,865
,865
,865
,864
,864
,864
,864
,843
,551
,418
,206
,187
,187
,187
,187
,188
,188
,187
,188
,187
,187
,187
,187
,187
,188
,187
,188
,187
,188
,188
,187
,188
,188
,188
,188
,188
,187
,188
,188
,188
,188
,188
,188
,187
,188
,187
,188
,187
,188
,187
,188
,187
,188
,188
,188
,187
,370
,532
,580
,641
,702
,755
,812
,843
,857
,858
,860
,860
,861
,862
,863
,863
,863
,863
,863
,862
,862
,860
,809
,743
,724
,703
,692
,686
,669
,668
,673
,676
,696
,654
,638
,643
,633
,713
,721
,197
,188
,187
,187
,187
,188
,188
,187
,188
,188
,188
,188
,187
,188
,188
,188
,188
,188
,188
,400
,743
,728
,813
,456
,310
,864
,865
,865
,865
,865
,865
,865
,865
,865
,865
,865
,865
,865
,865
,544
,864
,865
,865
,865
,865
,865
,865
,865
,865
,865
,865
,865
,865
,865
,865
,865
,865
,865
,862
,476
,862
,864
,417
,363
,862
,716
,864
,865
,865
,865
,865
,865
,865
,863
,863
,862
,861
,860
,860
,861
,862
,862
,863
,864
,865
,865
,865
,865
,865
,865
,865
,865
,865
,865
,865
,866
,865
,865
,866
,866
,865
,865
,864
,860
,188
,655
,188
,188
,188
,230
,397
,284
,327
,188
,188
,187
,188
,188
,188
,188
,187
,188
,188
,280
,297
,280
,287
,266
,246
,287
,294
,293
,312
,335
,369
,406
,294
,186
,188
,212
,374
,405
,489
,576
,706
,689
,187
,258
,727
,613
,735
,594
,609
,576
,516
,408
,862
,864
,864
,196
,860
,862
,862
,798
,187
,187
,187
,308
,197
,187
,188
,187
,188
,187
,188
,187
,188
,187
,187
,212
,187
,188
,188
,188
,188
,412
,512
,513
,486
,508
,514
,528
,529
,539
,221
,492
,705
,700
,619
,659
,610
,590
,585
,572
,570
,555
,548
,355
,187
,187
,188
,187
,187
,187
,188
,187
,188
,188
,205
,516
,573
,696
,819
,847
,564
,771
,824
,859
,758
,547
,807
,853
,861
,863
,863
,864
,864
,865
,865
,865
,864
,865
,864
,865
,661
,187
,187
,187
,863
,864
,864
,864
,857
,187
,187
,188
,188
,187
,188
,228
,187
,187
,187
,187
,187
,188
,188
,187
,187
,187
,865
,865
,865
,864
,865
,864
,864
,865
,865
,187
,865
,865
,865
,865
,864
,865
,865
,865
,864
,865
,865
,865
,865
,865
,865
,865
,864
,844
,187
,864
,864
,864
,864
,864
,864
,507
,188
,187
,187
,655
,841
,861
,861
,861
,862
,863
,809
,548
,856
,861
,862
,863
,863
,863
,863
,863
,863
,863
,862
,859
,806
,749
,690
,654
,620
,584
,557
,535
,509
,477
,449
,434
,422
,415
,416
,426
,420
,406
,402
,395
,414
,450
,472
,446
,407
,358
,371
,513
,508
,195
,188
,234
,356
,323
,320
,297
,282
,278
,277
,289
,309
,330
,346
,384
,356
,383
,357
,377
,402
,450
,494
,503
,519
,511
,519
,533
,544
,542
,553
,554
,547
,525
,510
,521
,523
,520
,504
,499
,481
,494
,473
,217
,187
,267
,401
,390
,390
,382
,379
,419
,414
,419
,412
,412
,412
,391
,359
,322
,298
,275
,269
,271
,281
,278
,283
,293
,300
,312
,310
,320
,325
,325
,326
,320
,326
,372
,398
,406
,414
,418
,443
,480
,454
,186
,197
,497
,522
,550
,575
,595
,605
,621
,640
,658
,667
,680
,676
,660
,628
,593
,571
,555
,544
,540
,524
,509
,520
,525
,523
,515
,519
,498
,481
,464
,445
,446
,441
,422
,432
,414
,386
,388
,440
,470
,378
,187
,186
,467
,461
,486
,503
,513
,523
,536
,551
,561
,580
,601
,595
,579
,558
,535
,521
,512
,514
,509
,510
,507
,510
,507
,507
,508
,511
,515
,520
,515
,506
,508
,488
,478
,517
,452
,623
,701
,704
,738
,757
,679
,307
,493
,633
,648
,647
,629
,612
,611
,606
,614
,644
,653
,659
,651
,666
,657
,634
,613
,627
,604
,608
,627
,615
,606
,664
,704
,720
,715
,706
,696
,676
,653
,645
,639
,645
,625
,641
,635
,625
,626
,615
,644
,735
,666
,294
,517
,652
,676
,671
,651
,644
,637
,187
,187
,187
,187
,862
,861
,861
,860
,668
,825
,765
,756
,727
,717
,687
,646
,613
,604
,570
,545
,534
,541
,535
,544
,533
,537
,514
,516
,549
,543
,547
,548
,562
,587
,611
,503
,186
,435
,559
,613
,643
,677
,692
,689
,462
,186
,319
,186
,187
,187
,671
,854
,800
,768
,187
,187
,186
,186
,187
,862
,863
,187
,187
,186
,186
,187
,187
,187
,187
,186
,186
,187
,187
,187
,187
,187
,863
,864
,186
,187
,187
,187
,187
,863
,864
,864
,864
,864
,864
,864
,864
,864
,864
,864
,864
,864
,864
,864
,864
,864
,864
,863
,864
,864
,186
,864
,864
,864
,864
,864
,864
,187
,186
,864
,864
,864
,864
,864
,864
,864
,864
,864
,864
,863
,863
,863
,187
,861
,846
,303
,187
,187
,187
,187
,187
,187
,187
,187
,187
,187
,187
,187
,863
,864
,864
,864
,864
,864
,864
,864
,864
,864
,864
,864
,864
,864
,864
,864
,864
,863
,863
,862
,861
,862
,604
,491
,667
,393
,187
,187
,187
,187
,187
,187
,187
,187
,187
,188
,190
,188
,188
,187
,187
,188
,187
,187
,187
,187
,187
,187
,187
,188
,187
,865
,865
,865
,864
,864
,864
,864
,187
,187
,187
,188
,187
,187
,187
,187
,188
,438
,864
,865
,864
,864
,865
,864
,864
,865
,864
,864
,863
,862
,850
,786
,697
,689
,675
,681
,658
,605
,635
,613
,576
,551
,555
,539
,187
,186
,188
,187
,186
,187
,187
,188
,188
,188
,187
,187
,187
,187
,188
,213
,288
,350
,345
,382
,443
,475
,455
,473
,527
,865
,864
,865
,864
,485
,378
,864
,865
,864
,865
,865
,864
,865
,864
,864
,864
,865
,865
,865
,864
,864
,864
,865
,864
,864
,864
,864
,864
,864
,850
,662
,800
,774
,735
,703
,657
,622
,591
,569
,543
,520
,502
,469
,422
,374
,317
,272
,187
,187
,187
,187
,187
,188
,187
,187
,187
,187
,187
,187
,188
,188
,188
,187
,187
,187
,188
,187
,188
,187
,188
,187
,188
,188
,187
,187
,188
,689
,576
,597
,187
,188
,187
,187
,187
,188
,187
,187
,188
,188
,188
,188
,188
,187
,273
,661
,385
,789
,347
,559
,544
,610
,508
,477
,548
,502
,765
,709
,431
,706
,188
,574
,667
,588
,605
,188
,864
,463
,456
,254
,861
,473
,555
,607
,690
,741
,479
,187
,863
,689
,520
,544
,541
,541
,541
,541
,551
,575
,593
,609
,624
,631
,634
,637
,641
,644
,642
,646
,640
,639
,642
,638
,631
,623
,606
,597
,616
,625
,536
,296
,778
,571
,542
,540
,584
,533
,543
,187
,835
,856
,862
,862
,863
,863
,864
,554
,290
,737
,528
,529
,450
,547
,543
,541
,542
,560
,577
,591
,597
,610
,612
,614
,614
,618
,612
,612
,610
,611
,607
,598
,599
,588
,586
,569
,565
,577
,586
,583
,580
,577
,598
,666
,690
,319
,373
,529
,558
,354
,756
,506
,546
,540
,541
,541
,603
,546
,531
,187
,187
,522
,541
,653
,684
,261
,794
,497
,549
,547
,607
,645
,675
,693
,705
,718
,718
,718
,723
,718
,719
,713
,704
,691
,683
,680
,684
,685
,675
,672
,668
,734
,807
,584
,305
,586
,621
,625
,626
,623
,618
,619
,619
,628
,630
,636
,630
,620
,595
,568
,533
,516
,505
,498
,495
,492
,492
,489
,489
,486
,488
,481
,482
,480
,476
,479
,479
,473
,476
,463
,465
,447
,456
,478
,480
,482
,487
,481
,536
,595
,533
,187
,600
,526
,544
,540
,542
,541
,541
,542
,541
,541
,548
,558
,560
,550
,526
,502
,479
,480
,475
,478
,480
,485
,482
,486
,486
,491
,492
,493
,491
,499
,496
,500
,499
,498
,492
,489
,482
,494
,514
,515
,520
,523
,519
,599
,653
,476
,187
,475
,537
,551
,562
,557
,575
,573
,585
,595
,605
,623
,625
,616
,602
,570
,545
,533
,521
,523
,518
,523
,517
,521
,522
,523
,527
,523
,525
,523
,528
,526
,530
,521
,522
,507
,510
,519
,534
,536
,541
,540
,544
,622
,670
,430
,215
,503
,550
,557
,567
,571
,575
,575
,586
,598
,610
,620
,623
,613
,597
,568
,539
,531
,520
,521
,523
,522
,524
,523
,521
,526
,520
,524
,528
,517
,526
,523
,527
,518
,525
,508
,505
,536
,538
,536
,539
,540
,571
,629
,613
,250
,366
,525
,547
,556
,561
,565
,569
,574
,584
,594
,605
,616
,608
,599
,574
,546
,527
,514
,509
,510
,511
,507
,511
,513
,508
,512
,513
,523
,513
,511
,514
,513
,511
,502
,502
,493
,493
,513
,521
,521
,517
,520
,585
,636
,522
,187
,436
,519
,540
,546
,553
,555
,562
,568
,576
,590
,603
,603
,599
,585
,560
,537
,517
,507
,509
,508
,501
,509
,506
,508
,509
,509
,509
,513
,509
,509
,511
,508
,508
,504
,493
,490
,512
,522
,524
,523
,528
,542
,613
,658
,354
,259
,510
,542
,553
,557
,562
,567
,575
,576
,591
,604
,613
,615
,608
,586
,557
,536
,525
,517
,519
,518
,526
,542
,537
,531
,535
,546
,558
,567
,563
,569
,562
,557
,560
,546
,543
,553
,567
,565
,565
,187
,625
,187
,277
,364
,756
,775
,501
,547
,540
,542
,582
,614
,644
,670
,690
,705
,714
,703
,696
,660
,640
,623
,616
,187
,268
,657
,518
,548
,517
,481
,560
,541
,548
,559
,222
,544
,579
,544
,584
,523
,551
,561
,538
,584
,537
,548
,547
,530
,554
,533
,533
,552
,542
,540
,552
,614
,654
,673
,696
,717
,740
,743
,733
,702
,686
,669
,672
,669
,667
,660
,670
,664
,665
,663
,670
,676
,678
,667
,657
,651
,643
,649
,621
,618
,638
,642
,638
,632
,633
,633
,704
,728
,432
,330
,577
,620
,620
,627
,628
,625
,628
,632
,641
,647
,656
,655
,641
,623
,588
,562
,547
,539
,532
,529
,530
,527
,525
,526
,521
,521
,519
,517
,520
,516
,514
,506
,502
,486
,481
,510
,520
,519
,519
,530
,555
,617
,614
,246
,322
,509
,533
,542
,543
,548
,551
,555
,557
,570
,581
,589
,581
,575
,550
,526
,504
,496
,508
,510
,496
,499
,490
,494
,490
,487
,493
,492
,492
,498
,491
,490
,488
,482
,483
,465
,461
,492
,499
,500
,503
,498
,525
,583
,590
,224
,277
,485
,516
,522
,527
,530
,535
,538
,547
,560
,572
,579
,578
,568
,549
,517
,498
,485
,482
,484
,483
,484
,485
,490
,486
,487
,483
,488
,483
,486
,489
,487
,486
,479
,478
,466
,469
,492
,501
,499
,502
,510
,550
,600
,550
,187
,366
,507
,532
,539
,543
,547
,551
,558
,568
,579
,592
,599
,593
,586
,559
,533
,515
,506
,502
,499
,504
,502
,504
,505
,501
,504
,534
,530
,531
,531
,518
,520
,520
,516
,506
,506
,515
,529
,533
,526
,534
,535
,600
,648
,474
,187
,475
,550
,576
,579
,573
,582
,581
,582
,589
,605
,609
,614
,607
,599
,563
,538
,520
,514
,507
,510
,505
,503
,507
,503
,503
,507
,504
,504
,504
,506
,507
,506
,492
,495
,484
,493
,514
,521
,517
,521
,520
,572
,616
,537
,187
,409
,516
,542
,547
,553
,560
,563
,566
,578
,589
,602
,606
,601
,589
,564
,538
,521
,510
,509
,508
,510
,509
,511
,513
,509
,515
,511
,513
,507
,515
,510
,506
,509
,501
,511
,542
,559
,575
,585
,595
,630
,688
,665
,266
,422
,552
,591
,588
,592
,607
,615
,616
,640
,643
,643
,646
,633
,620
,595
,558
,538
,524
,516
,508
,513
,516
,507
,508
,506
,509
,504
,504
,502
,501
,504
,495
,494
,476
,476
,504
,514
,514
,517
,516
,555
,604
,585
,197
,357
,516
,543
,553
,560
,561
,567
,578
,588
,598
,615
,627
,622
,623
,596
,567
,548
,549
,541
,540
,540
,540
,538
,540
,540
,541
,541
,541
,538
,539
,536
,532
,519
,519
,526
,543
,548
,549
,549
,548
,621
,664
,450
,198
,499
,560
,569
,573
,581
,583
,584
,593
,600
,612
,621
,623
,613
,598
,564
,542
,528
,522
,522
,517
,517
,514
,518
,514
,519
,516
,517
,512
,516
,512
,505
,507
,488
,484
,508
,520
,518
,519
,516
,536
,600
,626
,274
,272
,512
,542
,549
,551
,559
,564
,566
,575
,583
,594
,601
,599
,587
,567
,535
,515
,503
,500
,497
,496
,497
,498
,497
,499
,494
,499
,499
,498
,500
,495
,491
,483
,477
,491
,518
,525
,527
,532
,534
,600
,645
,452
,188
,473
,533
,548
,558
,569
,571
,580
,590
,602
,618
,624
,